Open,High,Low,Close,Volume
120.61000061035156,120.7699966430664,120.2699966430664,120.2699966430664,0
120.06999969482422,120.06999969482422,119.58999633789062,119.58999633789062,1840
119.94000244140625,119.94000244140625,119.55000305175781,119.55000305175781,1299
119.30500030517578,119.56999969482422,119.26000213623047,119.56999969482422,1461
119.31999969482422,119.36499786376953,119.18000030517578,119.18000030517578,685
119.02999877929688,119.02999877929688,118.9000015258789,118.9000015258789,1036
119.02999877929688,119.26499938964844,119.02999877929688,119.26499938964844,913
119.19000244140625,119.19000244140625,118.83000183105469,118.83999633789062,1561
119.04000091552734,119.04000091552734,119.04000091552734,119.04000091552734,1258
119.20999908447266,119.20999908447266,119.20999908447266,119.20999908447266,180
119.18000030517578,119.33000183105469,119.11499786376953,119.22000122070312,4184
119.26499938964844,119.6989974975586,119.23680114746094,119.6780014038086,2355
119.5999984741211,119.5999984741211,119.5999984741211,119.5999984741211,712
119.5,119.95980072021484,119.47000122070312,119.95980072021484,3263
119.72000122070312,119.72000122070312,119.55999755859375,119.70999908447266,1654
119.58000183105469,119.68499755859375,119.58000183105469,119.68499755859375,508
119.63249969482422,119.63500213623047,119.31500244140625,119.44999694824219,1939
119.72000122070312,119.7300033569336,119.69499969482422,119.7300033569336,2293
119.79499816894531,119.98999786376953,119.79499816894531,119.98999786376953,1087
120.01000213623047,120.12999725341797,119.98999786376953,120.12999725341797,776
120.25,120.25,120.0,120.11000061035156,4101
119.95999908447266,119.95999908447266,119.83000183105469,119.88500213623047,1756
119.81999969482422,120.08000183105469,119.81999969482422,120.04000091552734,4365
120.05000305175781,120.19999694824219,120.05000305175781,120.1500015258789,2418
120.08999633789062,120.08999633789062,120.0199966430664,120.02999877929688,707
120.0999984741211,120.0999984741211,119.91500091552734,119.91999816894531,770
119.86000061035156,119.8949966430664,119.86000061035156,119.8949966430664,600
119.87999725341797,120.06999969482422,119.67500305175781,119.97000122070312,4167
119.9000015258789,120.04000091552734,119.8499984741211,119.8499984741211,3683
120.05999755859375,120.12000274658203,120.02999877929688,120.12000274658203,1674
120.06999969482422,120.16999816894531,120.06999969482422,120.16999816894531,1288
120.05500030517578,120.05500030517578,119.94999694824219,119.95500183105469,1836
119.95999908447266,120.05000305175781,119.95999908447266,120.05000305175781,2009
120.1449966430664,120.25,120.08000183105469,120.25,2429
120.44000244140625,120.48100280761719,120.33000183105469,120.42500305175781,2537
120.48999786376953,120.56999969482422,120.43000030517578,120.44999694824219,3021
120.31999969482422,120.31999969482422,120.16999816894531,120.16999816894531,1387
120.22000122070312,120.30999755859375,120.22000122070312,120.30999755859375,724
120.19000244140625,120.25,120.05000305175781,120.12000274658203,2378
120.08000183105469,120.08000183105469,120.02999877929688,120.04499816894531,965
120.08000183105469,120.16500091552734,120.05000305175781,120.16500091552734,1269
120.36000061035156,120.5,120.36000061035156,120.5,1036
120.41999816894531,120.5,120.3499984741211,120.43000030517578,2052
120.375,120.38999938964844,120.27999877929688,120.37999725341797,2202
120.36499786376953,120.36499786376953,120.36499786376953,120.36499786376953,215
120.44499969482422,120.56500244140625,120.44499969482422,120.49099731445312,1535
120.66000366210938,120.80999755859375,120.66000366210938,120.80999755859375,896
120.80999755859375,121.04000091552734,120.69000244140625,120.87000274658203,5261
121.02999877929688,121.22000122070312,120.97000122070312,121.16000366210938,2523
121.22000122070312,121.22000122070312,121.1449966430664,121.1449966430664,981
121.16000366210938,121.20999908447266,121.05000305175781,121.20999908447266,1091
121.06999969482422,121.06999969482422,120.9000015258789,120.93499755859375,3480
120.97000122070312,120.9999008178711,120.93000030517578,120.98999786376953,1288
120.91999816894531,120.95999908447266,120.87000274658203,120.95999908447266,2304
120.91999816894531,121.11000061035156,120.91000366210938,121.11000061035156,2681
121.06999969482422,121.2699966430664,121.03170013427734,121.2699966430664,3161
121.11000061035156,121.16000366210938,121.11000061035156,121.16000366210938,1492
121.12999725341797,121.2699966430664,121.0999984741211,121.2699966430664,2216
121.33000183105469,121.4000015258789,121.0199966430664,121.06500244140625,6822
120.94999694824219,121.02999877929688,120.77999877929688,120.875,1410
120.80999755859375,120.91999816894531,120.80999755859375,120.85710144042969,1705
120.66000366210938,120.68000030517578,120.52999877929688,120.58999633789062,2469
120.65499877929688,120.70999908447266,120.55000305175781,120.5999984741211,1222
120.51499938964844,120.61000061035156,120.37000274658203,120.48999786376953,6691
120.56999969482422,120.68000030517578,120.56999969482422,120.68000030517578,1948
120.69499969482422,120.73999786376953,120.69499969482422,120.73829650878906,1673
120.66999816894531,120.70999908447266,120.51000213623047,120.52999877929688,3986
120.54499816894531,120.61000061035156,120.54499816894531,120.61000061035156,1263
120.55999755859375,120.73999786376953,120.54000091552734,120.73999786376953,3124
120.63999938964844,120.6500015258789,120.45999908447266,120.50499725341797,3705
120.54000091552734,120.55999755859375,120.37999725341797,120.5,5984
120.41000366210938,120.43000030517578,120.27999877929688,120.27999877929688,7316
120.21499633789062,120.43000030517578,120.19000244140625,120.43000030517578,8679
120.33999633789062,120.56999969482422,120.16999816894531,120.16999816894531,8932
120.19999694824219,120.55999755859375,120.19999694824219,120.33000183105469,24108
120.37,120.37,120.37,120.37,0
120.76000213623047,120.76000213623047,120.76000213623047,120.76000213623047,1042
120.58999633789062,120.58999633789062,120.58999633789062,120.58999633789062,297
120.81999969482422,121.04000091552734,120.79000091552734,121.01000213623047,2091
121.15499877929688,121.25,121.05000305175781,121.2300033569336,1456
120.93000030517578,120.93000030517578,120.93000030517578,120.93000030517578,260
120.94999694824219,121.05000305175781,120.76000213623047,121.05000305175781,1776
121.08000183105469,121.31999969482422,121.01000213623047,121.31999969482422,2121
121.5999984741211,121.5999984741211,121.19999694824219,121.28500366210938,5096
121.12999725341797,121.27999877929688,121.03500366210938,121.27999877929688,2138
121.27999877929688,121.4800033569336,121.05000305175781,121.05000305175781,19480
120.80000305175781,120.80000305175781,120.75,120.75,735
120.71089935302734,120.73999786376953,120.66000366210938,120.73999786376953,766
120.88999938964844,120.88999938964844,120.86499786376953,120.86499786376953,3272
120.83499908447266,120.87000274658203,120.80500030517578,120.80500030517578,1902
120.80500030517578,120.81500244140625,120.5,120.5,8771
120.70999908447266,120.83000183105469,120.70999908447266,120.7300033569336,755
120.86250305175781,120.9000015258789,120.86250305175781,120.88999938964844,1534
120.97000122070312,121.11000061035156,120.7699966430664,121.02999877929688,3736
121.0,121.30000305175781,120.98500061035156,121.30000305175781,1539
121.13999938964844,121.13999938964844,121.05000305175781,121.05999755859375,688
121.08000183105469,121.08000183105469,120.84500122070312,120.86750030517578,1788
120.79000091552734,121.0,120.77999877929688,120.9000015258789,6528
120.77999877929688,121.13999938964844,120.77999877929688,121.13999938964844,3598
121.13999938964844,121.13999938964844,120.95999908447266,121.02999877929688,2143
121.06999969482422,121.12999725341797,121.01000213623047,121.12999725341797,544
121.20999908447266,121.20999908447266,121.18000030517578,121.18000030517578,216
121.13999938964844,121.13999938964844,121.13999938964844,121.13999938964844,1407
121.44000244140625,121.5,121.43000030517578,121.5,1474
121.6500015258789,121.66000366210938,121.63999938964844,121.66000366210938,421
121.7300033569336,121.7300033569336,121.625,121.625,2015
121.5199966430664,121.5999984741211,121.5199966430664,121.5999984741211,681
121.63999938964844,121.7854995727539,121.63999938964844,121.7854995727539,1748
121.79000091552734,121.79000091552734,121.62999725341797,121.62999725341797,1270
121.58000183105469,121.75,121.58000183105469,121.69999694824219,1181
121.76000213623047,121.76000213623047,121.76000213623047,121.76000213623047,361
121.81999969482422,121.85310363769531,121.76499938964844,121.85310363769531,1892
121.69000244140625,121.69000244140625,121.45500183105469,121.45500183105469,1212
121.38999938964844,121.5,121.36000061035156,121.5,1622
121.69499969482422,121.69499969482422,121.69499969482422,121.69499969482422,101
121.62999725341797,121.62999725341797,121.55999755859375,121.55999755859375,1032
121.44000244140625,121.52999877929688,121.44000244140625,121.52999877929688,373
121.44999694824219,121.55000305175781,121.41999816894531,121.55000305175781,1099
121.61000061035156,121.61000061035156,121.61000061035156,121.61000061035156,438
121.5,121.54000091552734,121.38999938964844,121.44000244140625,2346
121.43000030517578,121.43000030517578,121.30000305175781,121.30999755859375,520
121.30000305175781,121.45999908447266,121.30000305175781,121.44999694824219,2744
121.30999755859375,121.5199966430664,121.30000305175781,121.5199966430664,2027
121.44999694824219,121.4800033569336,121.3499984741211,121.3499984741211,986
121.38500213623047,121.38500213623047,121.38500213623047,121.38500213623047,398
121.4281005859375,121.4281005859375,121.4281005859375,121.4281005859375,259
121.4000015258789,121.4000015258789,121.31999969482422,121.31999969482422,1118
121.59100341796875,121.59100341796875,121.47000122070312,121.47000122070312,999
121.3499984741211,121.58999633789062,121.3499984741211,121.52999877929688,800
121.48999786376953,121.52999877929688,121.33999633789062,121.51000213623047,2476
121.51000213623047,121.54000091552734,121.44999694824219,121.44999694824219,899
121.33999633789062,121.33999633789062,121.33999633789062,121.33999633789062,706
121.2249984741211,121.2300033569336,121.16500091552734,121.2300033569336,833
121.26000213623047,121.26000213623047,121.1500015258789,121.1500015258789,998
121.19499969482422,121.19499969482422,121.06999969482422,121.16500091552734,595
121.22000122070312,121.37000274658203,121.17009735107422,121.37000274658203,2183
121.38500213623047,121.46499633789062,121.38500213623047,121.44000244140625,1908
121.36000061035156,121.37000274658203,121.30999755859375,121.33999633789062,1139
121.43000030517578,121.54499816894531,121.43000030517578,121.54499816894531,1242
121.70999908447266,121.81999969482422,121.70999908447266,121.81999969482422,749
121.81999969482422,121.83999633789062,121.79000091552734,121.79000091552734,1192
121.81999969482422,121.88999938964844,121.81999969482422,121.81999969482422,2254
121.9000015258789,121.9000015258789,121.86000061035156,121.86000061035156,664
121.80000305175781,121.83000183105469,121.73999786376953,121.83000183105469,1654
121.8499984741211,121.86499786376953,121.76000213623047,121.86499786376953,2278
121.88999938964844,121.88999938964844,121.69000244140625,121.72000122070312,4395
121.66000366210938,121.69999694824219,121.45999908447266,121.52999877929688,5725
121.51000213623047,121.57990264892578,121.33999633789062,121.41999816894531,4905
121.44000244140625,121.58999633789062,121.4000015258789,121.58000183105469,8042
121.55000305175781,121.79499816894531,121.52999877929688,121.7699966430664,14485
121.7249984741211,121.7249984741211,121.36000061035156,121.47000122070312,15122
121.41999816894531,121.44999694824219,121.16680145263672,121.33999633789062,40223
121.42,121.42,121.42,121.42,30268
120.81999969482422,121.80000305175781,120.81999969482422,121.62000274658203,0
121.63999938964844,121.63999938964844,121.3499984741211,121.3499984741211,1856
120.90499877929688,121.05999755859375,120.83599853515625,120.8363037109375,1039
120.75,120.75,120.75,120.75,203
120.70999908447266,121.18000030517578,120.70999908447266,121.18000030517578,338
121.25,121.25,120.86000061035156,121.01000213623047,817
120.80999755859375,121.12000274658203,120.76000213623047,121.02999877929688,3082
122.06999969482422,122.06999969482422,122.06999969482422,122.06999969482422,57649
121.91500091552734,122.05999755859375,121.88999938964844,121.91500091552734,3164
121.99500274658203,122.08499908447266,121.72000122070312,122.0199966430664,4751
122.02999877929688,122.05999755859375,122.02999877929688,122.05999755859375,1610
122.04000091552734,122.05999755859375,121.98999786376953,122.0199966430664,3479
122.06210327148438,122.06210327148438,121.98999786376953,121.98999786376953,2274
121.9000015258789,121.91999816894531,121.66999816894531,121.66999816894531,2217
121.74500274658203,121.74500274658203,121.5,121.50499725341797,1414
121.54000091552734,121.55000305175781,121.45999908447266,121.55000305175781,4968
121.5999984741211,121.5999984741211,121.5999984741211,121.5999984741211,727
121.52999877929688,121.53500366210938,121.45999908447266,121.53500366210938,2461
121.44999694824219,121.54000091552734,121.44999694824219,121.54000091552734,2243
121.54000091552734,121.54000091552734,121.45999908447266,121.45999908447266,1085
121.375,121.55500030517578,121.375,121.53500366210938,2269
121.41999816894531,121.45999908447266,121.41999816894531,121.45999908447266,535
121.20999908447266,121.20999908447266,121.01000213623047,121.0199966430664,1396
121.08999633789062,121.37000274658203,121.08999633789062,121.31999969482422,3512
121.22000122070312,121.47000122070312,121.18499755859375,121.47000122070312,2985
121.42500305175781,121.58999633789062,121.37000274658203,121.37000274658203,9613
121.3499984741211,121.3499984741211,120.9175033569336,121.0999984741211,4610
121.0999984741211,121.0999984741211,121.08000183105469,121.08000183105469,727
121.04100036621094,121.04100036621094,120.86000061035156,120.86000061035156,1250
120.86000061035156,120.98999786376953,120.66999816894531,120.9000015258789,5632
120.8499984741211,120.87999725341797,120.79000091552734,120.8499984741211,2079
120.7300033569336,120.7300033569336,120.52999877929688,120.52999877929688,1594
120.66000366210938,120.68000030517578,120.56999969482422,120.56999969482422,1364
120.3949966430664,120.62000274658203,120.3949966430664,120.41999816894531,3016
120.33999633789062,120.33999633789062,120.16999816894531,120.29000091552734,2681
120.3499984741211,120.41500091552734,120.30999755859375,120.41500091552734,3766
120.3499984741211,120.3499984741211,120.08999633789062,120.08999633789062,2069
119.95999908447266,120.26000213623047,119.95999908447266,120.26000213623047,4897
120.16999816894531,120.16999816894531,119.8499984741211,119.98999786376953,5426
119.83499908447266,119.8499984741211,119.55000305175781,119.66000366210938,3836
119.62000274658203,119.69999694824219,119.5999984741211,119.61000061035156,8391
119.58000183105469,119.63999938964844,119.48500061035156,119.55999755859375,8656
119.58999633789062,119.5999984741211,119.16999816894531,119.17500305175781,14602
119.17500305175781,119.2300033569336,118.80999755859375,118.80999755859375,54939
118.83,118.83,118.83,118.83,0
118.0,118.0,118.0,118.0,0
119.22000122070312,119.22000122070312,118.30000305175781,118.30000305175781,1969
118.05000305175781,118.13999938964844,117.97000122070312,118.05000305175781,5848
118.66999816894531,118.8499984741211,118.45999908447266,118.66000366210938,3073
118.25,118.25,118.25,118.25,426
118.0999984741211,118.45500183105469,118.0999984741211,118.45500183105469,1659
118.44999694824219,118.44999694824219,117.87899780273438,117.87899780273438,966
118.04000091552734,118.22000122070312,118.04000091552734,118.19999694824219,2382
118.0199966430664,118.0199966430664,117.68000030517578,117.68000030517578,1615
117.793701171875,117.91000366210938,117.55000305175781,117.9000015258789,5680
117.86000061035156,118.30999755859375,117.80999755859375,118.30999755859375,3761
118.37999725341797,118.6500015258789,118.31999969482422,118.41000366210938,2400
118.37000274658203,118.8949966430664,118.27999877929688,118.8949966430664,3104
118.9000015258789,119.25,118.81999969482422,119.01000213623047,11210
119.01000213623047,119.11000061035156,118.78500366210938,119.01000213623047,4664
119.02999877929688,119.5999984741211,119.00499725341797,119.54499816894531,14574
119.62000274658203,120.06999969482422,119.58499908447266,119.79000091552734,11287
119.69000244140625,119.69000244140625,119.36000061035156,119.62999725341797,4600
119.5999984741211,119.69499969482422,119.45999908447266,119.54000091552734,2706
119.68000030517578,119.83000183105469,119.61499786376953,119.61499786376953,2804
119.51000213623047,119.62999725341797,119.43000030517578,119.62000274658203,4981
119.81999969482422,120.0,119.81999969482422,119.94000244140625,1200
119.94000244140625,120.03500366210938,119.77999877929688,119.95999908447266,4813
119.9469985961914,119.9469985961914,119.68499755859375,119.73999786376953,2905
119.69000244140625,119.76000213623047,119.58000183105469,119.72000122070312,3639
119.66600036621094,119.66600036621094,119.33000183105469,119.36000061035156,4108
119.33999633789062,119.33999633789062,119.28500366210938,119.28500366210938,962
119.36990356445312,119.36990356445312,119.16000366210938,119.16000366210938,1777
119.25,119.33000183105469,119.11000061035156,119.11000061035156,4445
119.11000061035156,119.18499755859375,119.11000061035156,119.11000061035156,1123
119.11000061035156,119.11000061035156,118.7300033569336,118.7300033569336,3094
118.68000030517578,118.8949966430664,118.62999725341797,118.62999725341797,4365
118.5999984741211,118.80000305175781,118.5999984741211,118.74500274658203,7659
118.75,119.0,118.75,119.0,2459
118.97000122070312,119.24819946289062,118.90499877929688,119.24819946289062,2614
119.25,119.26000213623047,119.01000213623047,119.01000213623047,1896
118.94000244140625,118.94000244140625,118.7300033569336,118.80000305175781,4951
118.8499984741211,118.91999816894531,118.58999633789062,118.80000305175781,2777
118.7699966430664,118.87000274658203,118.70999908447266,118.73999786376953,4082
118.55000305175781,118.55000305175781,118.36000061035156,118.36000061035156,732
118.36000061035156,118.44000244140625,118.30999755859375,118.30999755859375,594
118.27999877929688,118.31999969482422,118.2300033569336,118.26000213623047,2331
118.22000122070312,118.22000122070312,117.97000122070312,118.00499725341797,1859
118.0199966430664,118.0199966430664,117.86000061035156,117.86000061035156,1397
117.66000366210938,117.95999908447266,117.66000366210938,117.95999908447266,3357
117.94029998779297,117.94029998779297,117.75,117.75,1576
117.7249984741211,117.7249984741211,117.54000091552734,117.58999633789062,2956
117.56999969482422,117.69999694824219,117.50499725341797,117.69999694824219,2432
117.51000213623047,118.08999633789062,117.51000213623047,118.0,3855
117.9800033569336,117.9800033569336,117.72000122070312,117.87999725341797,2220
117.7300033569336,117.81999969482422,117.7300033569336,117.7300033569336,1784
117.75,117.75,117.54000091552734,117.69000244140625,3897
117.69999694824219,117.76000213623047,117.6500015258789,117.6500015258789,2060
117.5199966430664,117.5199966430664,117.0999984741211,117.2300033569336,3432
117.33000183105469,117.4000015258789,117.19000244140625,117.19000244140625,1696
117.19000244140625,117.29000091552734,117.06999969482422,117.0999984741211,3771
117.02999877929688,117.0999984741211,116.91999816894531,117.0,3132
117.0,117.08000183105469,116.87000274658203,117.08000183105469,3453
116.91000366210938,117.0199966430664,116.87000274658203,117.01499938964844,2032
116.98999786376953,116.98999786376953,116.55999755859375,116.61000061035156,2093
116.62999725341797,116.83000183105469,116.62999725341797,116.83000183105469,4422
116.61000061035156,116.87999725341797,116.61000061035156,116.83999633789062,3419
116.95999908447266,116.97000122070312,116.73999786376953,116.73999786376953,2309
116.73999786376953,116.73999786376953,116.61000061035156,116.72000122070312,2036
116.66000366210938,116.69000244140625,116.63999938964844,116.66000366210938,2384
116.66000366210938,116.72000122070312,116.4000015258789,116.41000366210938,5688
116.45999908447266,116.56999969482422,116.38999938964844,116.38999938964844,3761
116.43000030517578,116.43000030517578,116.07499694824219,116.20999908447266,4793
116.18000030517578,116.20999908447266,116.08000183105469,116.18000030517578,4561
116.18000030517578,116.31999969482422,116.18000030517578,116.30000305175781,5151
116.3499984741211,116.38999938964844,116.16999816894531,116.16999816894531,4497
116.16999816894531,116.16999816894531,115.83000183105469,115.8949966430664,5474
115.94999694824219,116.22000122070312,115.94999694824219,116.16999816894531,8702
116.23999786376953,116.5,116.19999694824219,116.5,5329
116.66999816894531,116.83000183105469,116.6500015258789,116.69999694824219,4941
116.5199966430664,116.74919891357422,116.4800033569336,116.65499877929688,6929
116.58999633789062,116.62999725341797,116.30999755859375,116.30999755859375,10981
116.33499908447266,116.68000030517578,116.2699966430664,116.37000274658203,32672
116.38,116.38,116.38,116.38,30711
116.38,116.38,116.38,116.38,0
116.62999725341797,116.62999725341797,116.62999725341797,116.62999725341797,251411
116.65499877929688,116.65499877929688,116.625,116.625,472
116.875,116.88999938964844,116.6500015258789,116.6500015258789,23276
116.72000122070312,116.72000122070312,116.2699966430664,116.2699966430664,4472
116.27999877929688,116.30999755859375,116.12999725341797,116.23999786376953,6447
116.30000305175781,116.37000274658203,116.1500015258789,116.37000274658203,5308
116.29499816894531,116.29499816894531,116.08000183105469,116.08000183105469,4499
116.0999984741211,116.0999984741211,115.5199966430664,115.5199966430664,6789
115.625,115.70999908447266,115.41000366210938,115.58000183105469,8056
115.44000244140625,115.83999633789062,115.4000015258789,115.83999633789062,8370
115.87000274658203,116.11000061035156,115.76219940185547,115.78500366210938,15546
116.7699966430664,116.7699966430664,116.7699966430664,116.7699966430664,0
116.05500030517578,116.05500030517578,116.05500030517578,116.05500030517578,1819
115.875,115.875,115.875,115.875,6828
116.30000305175781,116.30000305175781,116.30000305175781,116.30000305175781,11288
116.34500122070312,116.34500122070312,116.34500122070312,116.34500122070312,21079
114.79000091552734,114.79000091552734,114.79000091552734,114.79000091552734,19503
115.08999633789062,115.08999633789062,114.91999816894531,114.91999816894531,9247
115.23500061035156,115.23500061035156,115.23500061035156,115.23500061035156,3111
115.37000274658203,115.37000274658203,115.37000274658203,115.37000274658203,1887
115.58999633789062,115.58999633789062,115.58499908447266,115.58499908447266,5251
116.12999725341797,116.1500015258789,116.12999725341797,116.1500015258789,3685
116.16999816894531,116.16999816894531,115.97000122070312,116.0999984741211,4471
116.23999786376953,116.23999786376953,116.23999786376953,116.23999786376953,3355
115.96499633789062,115.96499633789062,115.96499633789062,115.96499633789062,9770
115.80000305175781,115.80000305175781,115.70999908447266,115.76000213623047,9907
115.65049743652344,115.65049743652344,115.5,115.5,9148
115.91000366210938,115.91000366210938,115.91000366210938,115.91000366210938,3541
115.91999816894531,115.93000030517578,115.86499786376953,115.93000030517578,3282
115.80000305175781,116.12000274658203,115.80000305175781,116.12000274658203,4427
116.08000183105469,116.08000183105469,116.04000091552734,116.06999969482422,686
115.91000366210938,115.94000244140625,115.91000366210938,115.94000244140625,12327
115.8499984741211,115.8499984741211,115.79000091552734,115.81999969482422,2339
115.75749969482422,115.77999877929688,115.75749969482422,115.77999877929688,2166
115.81999969482422,115.86000061035156,115.76499938964844,115.8499984741211,4343
115.70999908447266,115.80500030517578,115.67720031738281,115.80500030517578,4721
115.70999908447266,115.70999908447266,115.70999908447266,115.70999908447266,1722
115.99199676513672,116.20500183105469,115.99199676513672,116.20500183105469,4821
116.6500015258789,116.6500015258789,116.33999633789062,116.44000244140625,17360
116.51000213623047,116.5999984741211,116.51000213623047,116.5999984741211,5020
116.43499755859375,116.43499755859375,116.3949966430664,116.3949966430664,5599
116.62000274658203,116.62000274658203,116.51000213623047,116.56500244140625,3866
116.47000122070312,116.66999816894531,116.47000122070312,116.66999816894531,3816
116.9000015258789,116.9000015258789,116.80999755859375,116.80999755859375,4738
116.6500015258789,116.76000213623047,116.6500015258789,116.76000213623047,7467
116.66000366210938,116.66000366210938,116.66000366210938,116.66000366210938,4154
116.95999908447266,117.19999694824219,116.95999908447266,117.19999694824219,4234
117.06999969482422,117.5,117.06999969482422,117.5,6174
117.32499694824219,117.32499694824219,117.23999786376953,117.29000091552734,7455
116.98999786376953,117.05000305175781,116.98999786376953,117.05000305175781,6668
117.51000213623047,117.51000213623047,117.51000213623047,117.51000213623047,22532
116.86499786376953,116.86499786376953,116.86499786376953,116.86499786376953,21432
116.95999908447266,116.95999908447266,116.87999725341797,116.8949966430664,9230
115.83000183105469,115.83000183105469,115.83000183105469,115.83000183105469,17516
114.52999877929688,114.52999877929688,114.52999877929688,114.52999877929688,56647
115.41999816894531,115.41999816894531,115.3499984741211,115.3499984741211,18877
115.13500213623047,115.1500015258789,115.0199966430664,115.0199966430664,13642
115.0199966430664,115.0199966430664,114.8499984741211,114.8499984741211,15927
115.18000030517578,115.18000030517578,115.11000061035156,115.11000061035156,79095
115.19,115.19,115.19,115.19,0
116.07,116.07,116.07,116.07,0
115.77999877929688,116.41999816894531,114.76000213623047,115.97000122070312,5038
117.27999877929688,117.27999877929688,117.27999877929688,117.27999877929688,249
117.79519653320312,117.79519653320312,117.6050033569336,117.6050033569336,526
117.94999694824219,118.20999908447266,117.94999694824219,118.20999908447266,2127
118.26000213623047,118.30000305175781,117.93000030517578,117.93000030517578,1508
117.77999877929688,118.24079895019531,117.22000122070312,117.31999969482422,2533
117.63999938964844,118.1530990600586,117.63999938964844,118.1530990600586,1120
117.69000244140625,117.69000244140625,117.31999969482422,117.37999725341797,5142
117.47000122070312,117.4800033569336,117.12000274658203,117.12000274658203,974
116.98999786376953,117.12000274658203,116.81999969482422,116.81999969482422,1959
116.7699966430664,116.77999877929688,116.37000274658203,116.37000274658203,3476
116.12000274658203,116.19999694824219,116.0999984741211,116.18000030517578,818
116.0999984741211,116.1500015258789,115.8550033569336,115.9800033569336,3271
116.0199966430664,116.63999938964844,116.0199966430664,116.63999938964844,3047
116.56999969482422,116.56999969482422,116.19999694824219,116.19999694824219,1299
116.29000091552734,116.36000061035156,116.29000091552734,116.30000305175781,1394
116.27999877929688,116.7300033569336,116.27999877929688,116.7300033569336,1954
116.62999725341797,116.62999725341797,116.44999694824219,116.44999694824219,1293
116.58999633789062,116.6500015258789,116.41000366210938,116.41000366210938,3274
116.56999969482422,116.83000183105469,116.56999969482422,116.83000183105469,2216
117.02999877929688,117.02999877929688,116.29100036621094,116.38500213623047,2208
116.37000274658203,116.5199966430664,116.11000061035156,116.12000274658203,3174
116.0199966430664,116.05999755859375,115.81999969482422,115.9800033569336,5192
115.88999938964844,115.88999938964844,115.76000213623047,115.76000213623047,509
116.04000091552734,116.29000091552734,116.04000091552734,116.22000122070312,2026
116.06500244140625,116.36000061035156,116.06500244140625,116.15070343017578,3594
116.06999969482422,116.06999969482422,116.06999969482422,116.06999969482422,221
116.0,116.16999816894531,116.0,116.16999816894531,1518
116.375,116.375,116.375,116.375,154
116.43000030517578,116.43000030517578,116.22000122070312,116.30000305175781,2694
116.16999816894531,116.16999816894531,116.0199966430664,116.0199966430664,1637
115.9000015258789,116.04000091552734,115.69999694824219,115.97000122070312,3068
115.73999786376953,115.80999755859375,115.56999969482422,115.58499908447266,2936
115.72000122070312,115.77739715576172,115.6449966430664,115.77739715576172,1106
115.83000183105469,115.83000183105469,115.38999938964844,115.40499877929688,4030
115.30999755859375,115.30999755859375,114.94999694824219,115.05000305175781,1946
114.9800033569336,114.9800033569336,114.75,114.75,1070
114.69999694824219,114.69999694824219,114.66000366210938,114.66000366210938,591
114.66000366210938,114.66000366210938,114.2300033569336,114.2300033569336,2471
114.27999877929688,114.55999755859375,114.27999877929688,114.51000213623047,3364
114.48999786376953,114.48999786376953,114.43000030517578,114.47000122070312,1121
114.4000015258789,114.4000015258789,114.30999755859375,114.30999755859375,853
114.36000061035156,114.37999725341797,114.22000122070312,114.33000183105469,2823
114.25,114.25,114.13999938964844,114.13999938964844,1962
114.1500015258789,114.19999694824219,113.88999938964844,114.12000274658203,5684
113.91220092773438,113.95999908447266,113.5999984741211,113.5999984741211,1559
113.58999633789062,113.76000213623047,113.55000305175781,113.55000305175781,2372
113.45999908447266,113.7510986328125,113.45999908447266,113.66000366210938,3320
113.79000091552734,113.79000091552734,113.44000244140625,113.45500183105469,3238
113.27999877929688,113.69000244140625,113.27999877929688,113.54000091552734,1774
113.51000213623047,113.7699966430664,113.51000213623047,113.7699966430664,1259
113.48999786376953,113.62000274658203,113.44000244140625,113.62000274658203,2156
113.70999908447266,113.87999725341797,113.65499877929688,113.87999725341797,1530
114.08499908447266,114.19000244140625,114.05999755859375,114.05999755859375,886
114.30999755859375,114.30999755859375,114.01499938964844,114.05999755859375,1815
114.0999984741211,114.0999984741211,113.91000366210938,113.94999694824219,1466
113.9000015258789,113.9000015258789,113.5199966430664,113.5199966430664,3730
113.55000305175781,113.55000305175781,113.4800033569336,113.4800033569336,2207
113.26000213623047,113.30999755859375,113.13999938964844,113.2300033569336,1737
113.30000305175781,113.38999938964844,113.2699966430664,113.27999877929688,3277
113.44499969482422,113.52999877929688,113.36000061035156,113.36000061035156,1552
113.48999786376953,113.75,113.48999786376953,113.5999984741211,4453
113.66999816894531,113.71600341796875,113.41999816894531,113.52999877929688,4441
113.4000015258789,113.43000030517578,113.0999984741211,113.16000366210938,4115
113.04000091552734,113.25,112.94499969482422,113.16000366210938,3307
113.2699966430664,113.48999786376953,113.2699966430664,113.44000244140625,4337
113.44000244140625,113.5343017578125,113.16999816894531,113.20999908447266,3752
113.2300033569336,113.25,112.66999816894531,112.73999786376953,8585
112.8499984741211,113.12999725341797,112.66999816894531,113.12999725341797,3439
113.2300033569336,113.5,112.94999694824219,113.5,3641
113.55000305175781,113.97000122070312,113.55000305175781,113.80000305175781,1793
113.91999816894531,114.0,113.6500015258789,114.0,3289
114.05000305175781,114.05000305175781,113.63999938964844,113.63999938964844,3029
113.625,114.1500015258789,113.62000274658203,113.76000213623047,5162
113.88999938964844,114.06999969482422,113.47000122070312,113.55999755859375,7450
113.45999908447266,113.8499984741211,113.45999908447266,113.80500030517578,12794
113.79000091552734,113.86000061035156,113.51000213623047,113.62000274658203,28810
113.65,113.65,113.65,113.65,0
113.83000183105469,113.83000183105469,113.2300033569336,113.6500015258789,1951
112.63999938964844,113.08999633789062,112.44999694824219,113.08999633789062,3930
113.02999877929688,113.08000183105469,112.87999725341797,112.87999725341797,970
112.69000244140625,112.83999633789062,112.62999725341797,112.69999694824219,1526
112.88500213623047,112.88999938964844,112.88500213623047,112.88999938964844,850
113.30000305175781,113.30000305175781,113.30000305175781,113.30000305175781,625
113.47000122070312,113.47000122070312,113.19000244140625,113.2750015258789,2596
113.16000366210938,113.5199966430664,113.16000366210938,113.5199966430664,935
113.37999725341797,113.37999725341797,113.37000274658203,113.37000274658203,1420
113.30000305175781,113.30000305175781,113.05000305175781,113.05000305175781,1807
113.08000183105469,113.26499938964844,113.08000183105469,113.26499938964844,1788
113.2300033569336,113.2300033569336,112.76000213623047,112.76000213623047,2185
112.91000366210938,113.0199966430664,112.91000366210938,113.0199966430664,673
113.0999984741211,113.37999725341797,113.0999984741211,113.36499786376953,1139
113.5,113.5,113.08999633789062,113.30999755859375,1505
113.66999816894531,113.66999816894531,113.26000213623047,113.26000213623047,1894
113.0250015258789,113.08000183105469,113.0199966430664,113.08000183105469,1697
113.23999786376953,113.29000091552734,113.11000061035156,113.13999938964844,1419
113.26000213623047,113.37999725341797,113.26000213623047,113.37999725341797,913
113.55999755859375,113.68000030517578,113.51000213623047,113.51000213623047,1729
113.55999755859375,113.68000030517578,113.45999908447266,113.66999816894531,2809
113.62000274658203,113.7249984741211,113.62000274658203,113.7249984741211,639
114.02999877929688,114.05000305175781,113.87000274658203,114.05000305175781,1845
114.0,114.0,113.91500091552734,113.91500091552734,1354
113.87000274658203,113.87000274658203,113.87000274658203,113.87000274658203,461
113.75,113.91000366210938,113.69000244140625,113.91000366210938,1315
114.02999877929688,114.13999938964844,114.02999877929688,114.12999725341797,849
114.02999877929688,114.2300033569336,114.02999877929688,114.22000122070312,3996
114.37000274658203,114.44000244140625,114.23999786376953,114.44000244140625,3103
114.44999694824219,114.5,114.0999984741211,114.12999725341797,3926
114.30999755859375,114.31999969482422,114.16999816894531,114.16999816894531,2199
114.02010345458984,114.05000305175781,113.9800033569336,114.02999877929688,2568
113.9749984741211,114.05999755859375,113.9749984741211,114.05999755859375,870
114.13469696044922,114.18000030517578,114.12000274658203,114.12000274658203,1442
114.21499633789062,114.21499633789062,114.01000213623047,114.16999816894531,1931
114.11000061035156,114.1500015258789,114.11000061035156,114.1500015258789,1582
113.91000366210938,113.91000366210938,113.8550033569336,113.8550033569336,486
113.81999969482422,113.81999969482422,113.44000244140625,113.68000030517578,942
113.69999694824219,113.69999694824219,113.69999694824219,113.69999694824219,597
113.80999755859375,113.80999755859375,113.80999755859375,113.80999755859375,418
113.91999816894531,114.16999816894531,113.91000366210938,114.16999816894531,2500
114.05000305175781,114.17500305175781,113.9800033569336,114.17500305175781,1737
114.0999984741211,114.0999984741211,114.0999984741211,114.0999984741211,523
114.2249984741211,114.41999816894531,114.2249984741211,114.4000015258789,1940
114.33499908447266,114.33499908447266,114.13999938964844,114.1449966430664,2069
114.09500122070312,114.22000122070312,114.09500122070312,114.21499633789062,1077
114.19000244140625,114.27999877929688,114.19000244140625,114.27999877929688,1352
114.30000305175781,114.3949966430664,114.22000122070312,114.3949966430664,1114
114.31999969482422,114.43000030517578,114.31999969482422,114.43000030517578,1178
114.4000015258789,114.52999877929688,114.37000274658203,114.37000274658203,1543
114.12000274658203,114.2300033569336,114.12000274658203,114.2300033569336,1105
114.06999969482422,114.06999969482422,113.73999786376953,113.77999877929688,1606
113.76000213623047,113.76000213623047,113.55999755859375,113.55999755859375,1538
113.43000030517578,113.57990264892578,113.19000244140625,113.19000244140625,904
113.22000122070312,113.22000122070312,113.02999877929688,113.02999877929688,1559
113.06999969482422,113.08999633789062,113.0,113.08499908447266,1439
113.19999694824219,113.30999755859375,113.1500015258789,113.2699966430664,1424
113.29000091552734,113.72000122070312,113.29000091552734,113.72000122070312,1402
113.7300033569336,113.7300033569336,113.54000091552734,113.54000091552734,2058
113.68000030517578,113.94999694824219,113.62000274658203,113.9000015258789,2502
113.83999633789062,113.93240356445312,113.83999633789062,113.93000030517578,739
114.05999755859375,114.13500213623047,114.01000213623047,114.13500213623047,975
114.26000213623047,114.26000213623047,114.0999984741211,114.0999984741211,878
114.08000183105469,114.08000183105469,113.94000244140625,114.06999969482422,2497
114.16999816894531,114.16999816894531,114.16999816894531,114.16999816894531,1032
114.3364028930664,114.43000030517578,114.3145980834961,114.4000015258789,3089
114.38999938964844,114.38999938964844,114.08999633789062,114.0999984741211,6661
113.9800033569336,114.2699966430664,113.88999938964844,114.0199966430664,9071
114.0199966430664,114.04000091552734,113.88999938964844,113.91000366210938,3959
113.91000366210938,114.09500122070312,113.91000366210938,114.0,11800
114.0,114.43000030517578,113.93000030517578,114.43000030517578,30665
114.61499786376953,114.62999725341797,114.29000091552734,114.55000305175781,25439
114.5199966430664,115.0999984741211,114.47000122070312,115.0999984741211,71662
115.05,115.05,115.05,115.05,0
115.049,115.049,115.049,115.049,0
115.01000213623047,115.01000213623047,114.2300033569336,114.92500305175781,2174
114.69499969482422,115.98999786376953,114.69499969482422,115.98999786376953,805
115.4800033569336,115.4800033569336,115.29000091552734,115.29000091552734,3137
115.5,115.66000366210938,114.62999725341797,114.62999725341797,4316
114.70999908447266,115.45999908447266,114.70999908447266,115.37000274658203,2771
115.48999786376953,115.55999755859375,115.25,115.30000305175781,6122
115.11000061035156,115.41000366210938,115.11000061035156,115.4000015258789,1883
115.37999725341797,115.51000213623047,115.23999786376953,115.31999969482422,1408
115.51499938964844,115.70999908447266,115.22000122070312,115.51000213623047,4331
115.55999755859375,115.69000244140625,115.44999694824219,115.5199966430664,3556
115.51000213623047,115.5250015258789,115.3499984741211,115.44000244140625,3520
115.29000091552734,115.58000183105469,115.29000091552734,115.30999755859375,3927
115.33999633789062,115.33999633789062,114.95999908447266,114.95999908447266,1963
114.91999816894531,115.16999816894531,114.91999816894531,115.16999816894531,3148
114.66000366210938,114.81999969482422,114.66000366210938,114.79000091552734,437
115.02999877929688,115.4800033569336,115.0250015258789,115.4800033569336,1011
115.55999755859375,115.55999755859375,115.21499633789062,115.25499725341797,2631
115.33999633789062,115.33999633789062,115.18000030517578,115.18000030517578,1304
114.9800033569336,115.20999908447266,114.9800033569336,115.16999816894531,1670
115.19999694824219,115.44000244140625,115.19999694824219,115.44000244140625,1561
115.23999786376953,115.33000183105469,115.11100006103516,115.11100006103516,1286
115.1500015258789,115.2699966430664,115.1500015258789,115.2699966430664,1728
115.27999877929688,115.33999633789062,115.19000244140625,115.19000244140625,3150
115.2300033569336,115.36000061035156,115.05000305175781,115.17530059814453,5780
115.22000122070312,115.22000122070312,115.0199966430664,115.0199966430664,660
115.08999633789062,115.08999633789062,115.05999755859375,115.08499908447266,1091
115.16000366210938,115.22000122070312,115.16000366210938,115.18000030517578,1892
115.18000030517578,115.38999938964844,115.18000030517578,115.37999725341797,2347
115.51000213623047,115.70999908447266,115.51000213623047,115.54000091552734,12430
115.66000366210938,115.7699966430664,115.66000366210938,115.7699966430664,1424
115.78500366210938,116.18000030517578,115.78500366210938,115.86000061035156,4836
115.8499984741211,116.0,115.8499984741211,115.91999816894531,1966
116.0,116.25,116.0,116.25,1532
116.11000061035156,116.11000061035156,116.02999877929688,116.08000183105469,1294
115.95500183105469,115.9800033569336,115.88999938964844,115.9800033569336,2892
115.91000366210938,115.91000366210938,115.75,115.75,2255
115.69000244140625,115.76000213623047,115.66000366210938,115.72000122070312,1039
115.7699966430664,115.91000366210938,115.7699966430664,115.91000366210938,777
115.7300033569336,115.94999694824219,115.7300033569336,115.94999694824219,1449
115.83999633789062,116.0199966430664,115.83999633789062,116.0199966430664,1405
116.12000274658203,116.1500015258789,116.12000274658203,116.1500015258789,339
116.04000091552734,116.04000091552734,116.04000091552734,116.04000091552734,570
116.04000091552734,116.05999755859375,116.04000091552734,116.04000091552734,745
116.0199966430664,116.12000274658203,115.9800033569336,116.06999969482422,2409
116.20999908447266,116.30000305175781,116.1500015258789,116.30000305175781,3901
116.25,116.37000274658203,116.23999786376953,116.27999877929688,2296
116.30999755859375,116.3499984741211,116.02999877929688,116.02999877929688,5605
116.04000091552734,116.05000305175781,115.94000244140625,116.0199966430664,2513
116.02999877929688,116.16000366210938,116.0199966430664,116.1449966430664,2297
116.2750015258789,116.48999786376953,116.2750015258789,116.41999816894531,3104
116.29000091552734,116.29000091552734,116.19999694824219,116.2300033569336,1999
116.12999725341797,116.2300033569336,116.06999969482422,116.2300033569336,1455
116.26000213623047,116.26000213623047,116.26000213623047,116.26000213623047,401
116.3499984741211,116.55000305175781,116.33499908447266,116.55000305175781,4960
116.44999694824219,116.62000274658203,116.44999694824219,116.62000274658203,1317
116.69499969482422,116.75,116.63500213623047,116.75,1264
116.79000091552734,116.8499984741211,116.79000091552734,116.8499984741211,584
116.80000305175781,116.93499755859375,116.72000122070312,116.875,5614
116.7300033569336,116.80000305175781,116.68000030517578,116.72000122070312,1879
116.70999908447266,116.7699966430664,116.66500091552734,116.70500183105469,2735
116.70500183105469,116.86820220947266,116.6500015258789,116.6500015258789,6666
116.69999694824219,116.69999694824219,116.61499786376953,116.61499786376953,1771
116.55000305175781,116.55000305175781,116.33999633789062,116.33999633789062,2536
116.29000091552734,116.44999694824219,116.23999786376953,116.44999694824219,6295
116.4000015258789,116.4000015258789,116.4000015258789,116.4000015258789,456
116.3499984741211,116.41000366210938,116.3499984741211,116.37000274658203,2502
116.32499694824219,116.37000274658203,116.11000061035156,116.13999938964844,4544
115.98999786376953,115.98999786376953,115.79000091552734,115.79000091552734,4091
115.81999969482422,115.9000015258789,115.73999786376953,115.87000274658203,4686
115.88999938964844,116.18000030517578,115.83000183105469,116.18000030517578,2743
116.20999908447266,116.27999877929688,116.11000061035156,116.19999694824219,4247
116.1500015258789,116.48999786376953,116.08000183105469,116.48999786376953,6585
116.54000091552734,116.75,116.54000091552734,116.75,5970
116.73999786376953,116.77999877929688,116.51000213623047,116.7750015258789,9097
116.7300033569336,116.95999908447266,116.66000366210938,116.95999908447266,16910
117.06999969482422,117.33000183105469,117.00499725341797,117.25,20785
117.18000030517578,117.33999633789062,117.16000366210938,117.33000183105469,29478
117.3,117.3,117.299,117.3,0
117.3,117.3,117.3,117.3,0
115.6869,115.6869,115.6869,115.6869,0
118.2,118.2,118.2,118.2,0
117.08999633789062,118.93000030517578,116.7699966430664,118.93000030517578,16384
118.48999786376953,118.76000213623047,118.18000030517578,118.55000305175781,8560
118.22000122070312,118.2249984741211,117.58000183105469,117.69999694824219,15587
117.61000061035156,117.9000015258789,117.5999984741211,117.60009765625,3628
117.25,117.25,116.94000244140625,117.13999938964844,1838
116.7699966430664,116.98999786376953,116.76000213623047,116.81999969482422,2809
117.00499725341797,117.00499725341797,116.83999633789062,116.83999633789062,10588
116.86000061035156,116.98999786376953,116.83999633789062,116.97000122070312,1679
116.87000274658203,117.13999938964844,116.87000274658203,117.13999938964844,1024
117.11000061035156,117.11000061035156,116.95999908447266,116.95999908447266,847
116.83999633789062,117.37000274658203,116.83999633789062,117.36000061035156,2841
117.18000030517578,117.18000030517578,117.12999725341797,117.12999725341797,493
117.06999969482422,117.08000183105469,116.96070098876953,117.0,2558
117.0999984741211,117.0999984741211,117.0999984741211,117.0999984741211,226
117.18000030517578,117.18000030517578,117.0250015258789,117.0250015258789,2004
117.04000091552734,117.12999725341797,117.04000091552734,117.08000183105469,1053
117.1500015258789,117.27999877929688,117.08499908447266,117.08499908447266,2613
116.94999694824219,117.0199966430664,116.94999694824219,117.0199966430664,1613
116.95999908447266,117.05000305175781,116.95999908447266,117.05000305175781,588
116.91000366210938,116.91000366210938,116.91000366210938,116.91000366210938,522
116.88999938964844,117.02999877929688,116.88999938964844,116.9573974609375,3149
116.9000015258789,116.9000015258789,116.88999938964844,116.88999938964844,1259
116.8499984741211,116.8499984741211,116.44999694824219,116.80000305175781,3312
116.87999725341797,116.87999725341797,116.81999969482422,116.81999969482422,699
116.88999938964844,116.97000122070312,116.88999938964844,116.88999938964844,1578
116.93000030517578,116.93000030517578,116.77999877929688,116.77999877929688,486
116.69000244140625,116.69000244140625,116.66000366210938,116.66000366210938,618
116.58999633789062,116.58999633789062,116.58999633789062,116.58999633789062,134
116.52999877929688,116.52999877929688,116.52999877929688,116.52999877929688,278
116.54000091552734,116.54000091552734,116.51000213623047,116.51000213623047,403
116.50499725341797,116.51000213623047,116.50499725341797,116.51000213623047,1023
116.52999877929688,116.66000366210938,116.5199966430664,116.66000366210938,2251
116.69999694824219,116.69999694824219,116.55000305175781,116.69999694824219,1178
116.83999633789062,116.83999633789062,116.83999633789062,116.83999633789062,648
116.56999969482422,117.01000213623047,116.56999969482422,117.01000213623047,1548
116.98999786376953,117.08999633789062,116.80999755859375,116.86000061035156,2996
116.7300033569336,116.7300033569336,116.5199966430664,116.5199966430664,1315
116.66999816894531,116.66999816894531,116.66999816894531,116.66999816894531,821
116.7300033569336,116.7300033569336,116.5999984741211,116.66000366210938,1316
116.62000274658203,116.62000274658203,116.62000274658203,116.62000274658203,189
116.52999877929688,116.55999755859375,116.52999877929688,116.55999755859375,417
116.66999816894531,116.75,116.66999816894531,116.70999908447266,988
116.7780990600586,116.88999938964844,116.7780990600586,116.88999938964844,597
116.88999938964844,116.95999908447266,116.80000305175781,116.80000305175781,1524
116.77760314941406,116.9000015258789,116.77760314941406,116.83999633789062,998
116.77999877929688,117.0199966430664,116.77999877929688,116.91000366210938,1053
116.9000015258789,116.97000122070312,116.9000015258789,116.97000122070312,1131
117.12480163574219,117.2699966430664,117.12000274658203,117.12000274658203,1286
117.05999755859375,117.05999755859375,117.0,117.0,731
116.97000122070312,116.97000122070312,116.91500091552734,116.91500091552734,1252
116.83000183105469,116.95999908447266,116.83000183105469,116.95999908447266,1398
117.01000213623047,117.02999877929688,116.75,116.9800033569336,3238
116.90499877929688,117.05500030517578,116.90499877929688,116.94000244140625,1316
116.91000366210938,116.91000366210938,116.7750015258789,116.81999969482422,1354
116.8499984741211,116.87000274658203,116.8499984741211,116.8499984741211,1208
116.98999786376953,117.29000091552734,116.98999786376953,117.27999877929688,2081
117.16000366210938,117.16000366210938,117.11000061035156,117.11000061035156,523
117.1050033569336,117.25499725341797,117.1050033569336,117.19999694824219,1820
117.19999694824219,117.26000213623047,117.08999633789062,117.13300323486328,2115
117.17500305175781,117.17500305175781,117.12999725341797,117.12999725341797,491
117.18000030517578,117.3949966430664,117.08999633789062,117.3949966430664,3701
117.30999755859375,117.44999694824219,117.2699966430664,117.44000244140625,3167
117.44499969482422,117.44499969482422,117.44499969482422,117.44499969482422,562
117.36000061035156,117.45999908447266,117.27999877929688,117.42500305175781,1682
117.4749984741211,117.4800033569336,117.41500091552734,117.41500091552734,791
117.45999908447266,117.66999816894531,117.44000244140625,117.66999816894531,3121
117.56999969482422,117.69999694824219,117.54000091552734,117.61000061035156,3097
117.54000091552734,117.6500015258789,117.41999816894531,117.45999908447266,3892
117.44999694824219,117.56999969482422,117.37000274658203,117.37000274658203,4372
117.38999938964844,117.51000213623047,117.31999969482422,117.44999694824219,6230
117.51499938964844,117.70999908447266,117.47000122070312,117.66999816894531,9487
117.68000030517578,117.70999908447266,117.44000244140625,117.4800033569336,18040
117.48,117.48,117.479,117.479,0
116.69999694824219,116.69999694824219,116.69999694824219,116.69999694824219,1616
116.45500183105469,116.45500183105469,116.45500183105469,116.45500183105469,180
116.55999755859375,116.55999755859375,116.55999755859375,116.55999755859375,220
116.40499877929688,116.58000183105469,116.26000213623047,116.52249908447266,3132
116.72000122070312,116.72000122070312,116.54000091552734,116.54000091552734,928
116.66000366210938,116.75,116.61000061035156,116.63999938964844,1745
116.625,116.77999877929688,116.47000122070312,116.47000122070312,16457
116.30500030517578,116.4800033569336,116.1449966430664,116.4800033569336,2078
116.4800033569336,116.4800033569336,116.08499908447266,116.1500015258789,1559
116.33000183105469,116.33000183105469,116.33000183105469,116.33000183105469,256
116.2750015258789,116.2750015258789,116.1050033569336,116.2699966430664,1029
116.11000061035156,116.28990173339844,116.11000061035156,116.18000030517578,27095
116.01000213623047,116.5199966430664,116.01000213623047,116.48999786376953,1833
116.45500183105469,116.75,116.45500183105469,116.73999786376953,33175
116.75,116.75,116.69000244140625,116.69000244140625,745
116.48999786376953,116.48999786376953,116.43000030517578,116.45999908447266,1374
116.80999755859375,116.83000183105469,116.80999755859375,116.83000183105469,713
116.86499786376953,116.86499786376953,116.86499786376953,116.86499786376953,46732
116.95999908447266,116.95999908447266,116.88999938964844,116.88999938964844,615
116.93499755859375,117.0199966430664,116.70800018310547,116.70800018310547,2297
116.68000030517578,116.68000030517578,116.68000030517578,116.68000030517578,626
116.94000244140625,116.94000244140625,116.94000244140625,116.94000244140625,273
116.91500091552734,116.91500091552734,116.91500091552734,116.91500091552734,276
116.80000305175781,116.87999725341797,116.75,116.87999725341797,1832
116.81999969482422,116.87000274658203,116.81999969482422,116.83999633789062,860
116.79000091552734,116.86000061035156,116.77999877929688,116.80000305175781,1130
116.8550033569336,116.8550033569336,116.8499984741211,116.8499984741211,746
116.7699966430664,116.79499816894531,116.625,116.75,1964
116.69999694824219,116.69999694824219,116.4000015258789,116.4000015258789,766
116.25,116.52999877929688,116.25,116.52999877929688,1772
116.52999877929688,116.6500015258789,116.52999877929688,116.6500015258789,825
116.62999725341797,116.67500305175781,116.62999725341797,116.67500305175781,1253
116.5,116.65989685058594,116.5,116.5199966430664,1897
116.48999786376953,116.58999633789062,116.48999786376953,116.58999633789062,587
116.63999938964844,116.63999938964844,116.55999755859375,116.55999755859375,1204
116.55000305175781,116.55000305175781,116.5199966430664,116.5199966430664,1192
116.44999694824219,116.47000122070312,116.43000030517578,116.47000122070312,778
116.52999877929688,116.66999816894531,116.5,116.66999816894531,1405
116.63999938964844,116.66999816894531,116.5250015258789,116.5250015258789,816
116.5,116.5,116.5,116.5,652
116.45999908447266,116.4800033569336,116.43000030517578,116.43000030517578,1527
116.41000366210938,116.41000366210938,116.29000091552734,116.33499908447266,6629
116.36000061035156,116.38999938964844,116.19000244140625,116.3499984741211,1949
116.41999816894531,116.41999816894531,116.41999816894531,116.41999816894531,492
116.41000366210938,116.41000366210938,116.3499984741211,116.37000274658203,992
116.3550033569336,116.36000061035156,116.30999755859375,116.33000183105469,1362
116.31999969482422,116.31999969482422,116.23999786376953,116.25,928
116.33000183105469,116.51000213623047,116.30999755859375,116.51000213623047,1813
116.58000183105469,116.58000183105469,116.56999969482422,116.56999969482422,859
116.5199966430664,116.5199966430664,116.44000244140625,116.48999786376953,1589
116.66000366210938,116.66000366210938,116.48999786376953,116.58999633789062,1846
116.55000305175781,116.55000305175781,116.55000305175781,116.55000305175781,360
116.47000122070312,116.4800033569336,116.33000183105469,116.43000030517578,1472
116.44000244140625,116.44000244140625,116.44000244140625,116.44000244140625,297
116.37000274658203,116.63999938964844,116.37000274658203,116.63999938964844,3277
116.5,116.5,116.5,116.5,718
116.37999725341797,116.47000122070312,116.37999725341797,116.45999908447266,1515
116.55999755859375,116.61000061035156,116.55999755859375,116.61000061035156,408
116.62000274658203,116.66000366210938,116.55000305175781,116.56500244140625,2695
116.61000061035156,116.61250305175781,116.55000305175781,116.61250305175781,1049
116.52999877929688,116.70999908447266,116.4749984741211,116.69000244140625,11869
116.68000030517578,116.70999908447266,116.62000274658203,116.66000366210938,3599
116.60749816894531,116.60749816894531,116.47000122070312,116.47000122070312,1903
116.44999694824219,116.58000183105469,116.41000366210938,116.56500244140625,3697
116.51000213623047,116.75,116.41000366210938,116.66000366210938,5728
116.62000274658203,116.62000274658203,116.45999908447266,116.58999633789062,2315
116.52999877929688,116.61000061035156,116.44999694824219,116.4749984741211,3513
116.4800033569336,116.62000274658203,116.4800033569336,116.62000274658203,3121
116.62999725341797,116.69000244140625,116.52999877929688,116.62999725341797,6245
116.58000183105469,116.58000183105469,116.2699966430664,116.48249816894531,16520
116.5199966430664,116.62999725341797,116.51000213623047,116.52999877929688,7306
116.52999877929688,116.62999725341797,116.27999877929688,116.38999938964844,18641
116.43000030517578,116.65499877929688,116.43000030517578,116.61000061035156,36403
116.62,116.62,116.62,116.62,0
116.62,116.62,116.62,116.62,0
116.62,116.62,116.62,116.62,0
116.44000244140625,116.44000244140625,115.66380310058594,115.8499984741211,1622
116.29000091552734,116.29000091552734,116.29000091552734,116.29000091552734,363
116.30000305175781,116.30000305175781,116.16999816894531,116.16999816894531,1445
116.16000366210938,116.38999938964844,116.16000366210938,116.38999938964844,1398
116.1500015258789,116.16000366210938,115.9000015258789,115.97730255126953,2742
115.52999877929688,115.93000030517578,115.52999877929688,115.58999633789062,877
115.91000366210938,115.91000366210938,115.91000366210938,115.91000366210938,503
116.19999694824219,116.19999694824219,116.19999694824219,116.19999694824219,297
116.19000244140625,116.51000213623047,116.19000244140625,116.51000213623047,1543
116.37000274658203,116.44000244140625,116.29000091552734,116.29000091552734,1147
116.58000183105469,116.66000366210938,116.55000305175781,116.59249877929688,2273
116.68000030517578,116.68000030517578,116.68000030517578,116.68000030517578,619
116.7300033569336,116.84500122070312,116.7300033569336,116.84500122070312,1154
116.87000274658203,117.16000366210938,116.87000274658203,117.12999725341797,1212
117.37000274658203,117.37000274658203,117.05000305175781,117.05000305175781,1464
117.05999755859375,117.11000061035156,117.05999755859375,117.0999984741211,2039
117.37999725341797,117.37999725341797,117.20999908447266,117.20999908447266,3375
117.0,117.0,116.94499969482422,116.94499969482422,1260
117.0250015258789,117.12999725341797,117.0250015258789,117.12000274658203,699
117.16999816894531,117.30999755859375,117.02999877929688,117.30999755859375,3614
117.05999755859375,117.08000183105469,116.93000030517578,116.94000244140625,2751
116.73999786376953,116.73999786376953,116.70999908447266,116.73999786376953,668
116.93000030517578,116.93000030517578,116.83999633789062,116.91999816894531,1367
117.01000213623047,117.01000213623047,117.01000213623047,117.01000213623047,658
117.05999755859375,117.09040069580078,116.88999938964844,116.88999938964844,1343
116.81999969482422,116.81999969482422,116.76000213623047,116.76000213623047,914
116.5,116.5,116.5,116.5,993
116.63999938964844,116.66000366210938,116.58499908447266,116.58499908447266,4470
116.44499969482422,116.44499969482422,116.23500061035156,116.29000091552734,2008
116.41000366210938,116.5199966430664,116.37999725341797,116.5199966430664,1982
116.37999725341797,116.38999938964844,116.37999725341797,116.38999938964844,1244
116.47339630126953,116.47339630126953,116.47339630126953,116.47339630126953,284
116.63999938964844,116.69000244140625,116.63999938964844,116.69000244140625,1576
116.58999633789062,116.58999633789062,116.43000030517578,116.48999786376953,2306
116.5,116.5,116.5,116.5,512
116.69000244140625,116.69000244140625,116.62999725341797,116.62999725341797,607
116.44999694824219,116.5199966430664,116.43000030517578,116.5199966430664,960
116.58999633789062,116.58999633789062,116.58999633789062,116.58999633789062,291
116.6500015258789,116.6500015258789,116.58999633789062,116.58999633789062,1041
116.53500366210938,116.53500366210938,116.5199966430664,116.5199966430664,456
116.58999633789062,116.63500213623047,116.58999633789062,116.625,984
116.62000274658203,116.66000366210938,116.62000274658203,116.66000366210938,1495
116.69999694824219,116.69999694824219,116.69999694824219,116.69999694824219,458
116.80000305175781,116.80999755859375,116.69999694824219,116.69999694824219,1424
116.68000030517578,116.69000244140625,116.66000366210938,116.69000244140625,616
116.73999786376953,116.8499984741211,116.73999786376953,116.8499984741211,1451
116.77999877929688,116.77999877929688,116.6500015258789,116.6500015258789,704
116.6500015258789,116.80000305175781,116.6500015258789,116.80000305175781,1866
116.80000305175781,116.8949966430664,116.80000305175781,116.8949966430664,1080
116.8550033569336,116.8550033569336,116.65010070800781,116.65010070800781,980
116.7300033569336,116.74500274658203,116.7300033569336,116.74500274658203,921
116.66000366210938,116.66000366210938,116.55999755859375,116.6500015258789,1510
116.6050033569336,116.6050033569336,116.4800033569336,116.4800033569336,594
116.55999755859375,116.58999633789062,116.41500091552734,116.43000030517578,2963
116.38999938964844,116.58999633789062,116.37000274658203,116.58999633789062,3706
116.62000274658203,116.62000274658203,116.33000183105469,116.33000183105469,1327
116.36000061035156,116.37000274658203,116.12000274658203,116.12000274658203,1686
116.12999725341797,116.12999725341797,116.0,116.125,1317
115.83999633789062,115.94999694824219,115.81999969482422,115.88999938964844,2618
115.80000305175781,115.8499984741211,115.75,115.75,2046
115.66999816894531,115.72000122070312,115.66999816894531,115.70999908447266,1811
115.61000061035156,115.68000030517578,115.61000061035156,115.68000030517578,284
115.62999725341797,115.72000122070312,115.62999725341797,115.71499633789062,2829
115.77999877929688,115.80000305175781,115.61000061035156,115.61000061035156,2782
115.5199966430664,115.55999755859375,115.46499633789062,115.55999755859375,3986
115.94999694824219,115.94999694824219,115.66549682617188,115.66549682617188,9296
115.72000122070312,115.72000122070312,115.47000122070312,115.47000122070312,2890
115.44000244140625,115.51000213623047,115.36499786376953,115.44999694824219,3355
115.36000061035156,115.3949966430664,115.12999725341797,115.2300033569336,4342
115.2300033569336,115.2300033569336,115.05999755859375,115.06999969482422,6811
114.94000244140625,115.0999984741211,114.91000366210938,115.02999877929688,7950
115.01000213623047,115.30000305175781,115.01000213623047,115.19000244140625,19315
115.19,115.19,115.19,115.19,0
115.5199966430664,115.5199966430664,115.5199966430664,115.5199966430664,120132
115.52999877929688,115.56500244140625,115.52999877929688,115.56500244140625,591
115.55999755859375,115.7300033569336,115.53500366210938,115.6500015258789,2957
115.5999984741211,115.80999755859375,115.5999984741211,115.75499725341797,1456
115.87000274658203,115.9749984741211,115.8499984741211,115.94000244140625,2510
115.87999725341797,115.87999725341797,115.63999938964844,115.73999786376953,1635
115.76000213623047,115.87999725341797,115.69999694824219,115.77999877929688,3922
115.73999786376953,115.81999969482422,115.69999694824219,115.80999755859375,3861
115.99500274658203,116.02999877929688,115.76499938964844,115.9800033569336,3492
115.88999938964844,116.02999877929688,115.7426986694336,115.83000183105469,5172
115.79000091552734,115.79000091552734,115.55000305175781,115.55000305175781,5617
115.52999877929688,115.52999877929688,115.20999908447266,115.33499908447266,7898
115.44999694824219,115.56999969482422,115.37999725341797,115.45999908447266,12728
115.43000030517578,115.43000030517578,115.20999908447266,115.26000213623047,38122
115.26,115.26,115.26,115.26,0
114.74,114.74,114.74,114.74,3
115.0,115.0,115.0,115.0,2080
115.61000061035156,115.61000061035156,114.86499786376953,114.86499786376953,1520
115.01000213623047,115.01000213623047,114.86000061035156,114.86000061035156,1412
115.08999633789062,115.08999633789062,114.86499786376953,114.86499786376953,223
114.73999786376953,114.93000030517578,114.73999786376953,114.93000030517578,753
115.13999938964844,115.47000122070312,115.13999938964844,115.36000061035156,1292
115.27999877929688,115.27999877929688,114.99500274658203,114.99500274658203,1007
115.19999694824219,115.19999694824219,115.19999694824219,115.19999694824219,347
115.37999725341797,115.41500091552734,115.19999694824219,115.19999694824219,1453
115.18499755859375,115.45860290527344,115.18499755859375,115.45860290527344,2338
115.44999694824219,115.44999694824219,115.33999633789062,115.34020233154297,792
115.30000305175781,115.30000305175781,115.11000061035156,115.11000061035156,474
115.1050033569336,115.50499725341797,115.1050033569336,115.50499725341797,1562
115.38999938964844,115.5199966430664,115.38999938964844,115.5199966430664,586
115.33000183105469,115.3499984741211,115.31999969482422,115.3499984741211,650
115.5,115.58999633789062,115.5,115.5,2307
115.52999877929688,115.69999694824219,115.52999877929688,115.5999984741211,3906
115.75,115.75,115.75,115.75,516
116.04000091552734,116.04000091552734,115.86499786376953,115.86499786376953,864
115.9000015258789,115.9000015258789,115.7699966430664,115.77999877929688,739
115.73999786376953,115.94999694824219,115.73999786376953,115.94999694824219,1274
116.0,116.0199966430664,115.80500030517578,115.80500030517578,2824
115.97000122070312,115.97000122070312,115.88999938964844,115.88999938964844,314
115.72000122070312,115.73999786376953,115.72000122070312,115.73999786376953,1491
115.73500061035156,115.73500061035156,115.73500061035156,115.73500061035156,353
116.14659881591797,116.14659881591797,116.14659881591797,116.14659881591797,959
116.22000122070312,116.22000122070312,116.11000061035156,116.16999816894531,2258
116.11000061035156,116.16000366210938,116.11000061035156,116.16000366210938,944
116.12000274658203,116.12000274658203,116.06999969482422,116.06999969482422,970
116.08999633789062,116.12999725341797,116.02539825439453,116.02539825439453,3627
115.91999816894531,115.93000030517578,115.8635025024414,115.93000030517578,2985
115.9176025390625,115.9176025390625,115.9176025390625,115.9176025390625,1158
116.05999755859375,116.05999755859375,115.81999969482422,115.81999969482422,3832
115.81999969482422,116.25,115.81999969482422,116.22000122070312,9869
116.3949966430664,116.3949966430664,116.30000305175781,116.30999755859375,797
116.3384017944336,116.33999633789062,116.0999984741211,116.0999984741211,1982
116.22000122070312,116.2699966430664,116.22000122070312,116.2699966430664,1022
116.1500015258789,116.1500015258789,116.1500015258789,116.1500015258789,572
116.19000244140625,116.19000244140625,116.05999755859375,116.05999755859375,2066
116.0,116.04000091552734,115.87999725341797,116.0199966430664,1002
116.06999969482422,116.06999969482422,115.94000244140625,116.0,1732
115.87000274658203,115.87000274658203,115.87000274658203,115.87000274658203,956
115.97000122070312,115.97000122070312,115.95999908447266,115.95999908447266,563
116.08999633789062,116.1500015258789,116.04000091552734,116.04000091552734,1802
116.05000305175781,116.05000305175781,115.87999725341797,115.87999725341797,714
115.81999969482422,115.81999969482422,115.77999877929688,115.77999877929688,873
115.87000274658203,116.02999877929688,115.8499984741211,115.91500091552734,1449
115.81999969482422,115.83499908447266,115.67140197753906,115.77999877929688,3032
115.86000061035156,115.9800033569336,115.80500030517578,115.9800033569336,1866
116.0250015258789,116.0250015258789,116.0,116.0,952
116.06999969482422,116.10260009765625,116.06999969482422,116.10260009765625,1024
116.13999938964844,116.13999938964844,115.91999816894531,115.91999816894531,1878
115.77999877929688,115.80000305175781,115.66999816894531,115.66999816894531,2270
115.73500061035156,115.74500274658203,115.66000366210938,115.69999694824219,1106
115.76499938964844,115.83000183105469,115.7249984741211,115.81999969482422,3604
115.91000366210938,115.95999908447266,115.76000213623047,115.76000213623047,1896
115.7594985961914,115.81999969482422,115.7300033569336,115.74500274658203,1989
115.69000244140625,115.69000244140625,115.62000274658203,115.62000274658203,562
115.45999908447266,115.58000183105469,115.37999725341797,115.37999725341797,1574
115.51000213623047,115.57499694824219,115.45999908447266,115.55999755859375,2458
115.62999725341797,115.66999816894531,115.52999877929688,115.6500015258789,2841
115.61000061035156,115.76609802246094,115.61000061035156,115.68499755859375,867
115.79000091552734,115.95999908447266,115.79000091552734,115.95999908447266,1329
116.02999877929688,116.1500015258789,115.95999908447266,116.1500015258789,1809
116.04000091552734,116.11000061035156,115.9800033569336,116.11000061035156,2680
116.12000274658203,116.12000274658203,115.98999786376953,116.0999984741211,3823
116.05999755859375,116.30000305175781,116.05999755859375,116.23999786376953,7568
116.37000274658203,116.37000274658203,116.13500213623047,116.13500213623047,3744
116.23999786376953,116.37000274658203,115.94999694824219,116.0,6928
115.96499633789062,116.16000366210938,115.94000244140625,116.01000213623047,9319
116.0199966430664,116.29000091552734,116.0,116.29000091552734,12020
116.23999786376953,116.43499755859375,115.98999786376953,116.05999755859375,24830
116.1,116.1,116.05,116.05,0
117.08000183105469,117.50499725341797,117.08000183105469,117.20999908447266,1484
116.33000183105469,116.33000183105469,116.33000183105469,116.33000183105469,315
117.54000091552734,117.65499877929688,117.54000091552734,117.63999938964844,1047
117.63999938964844,117.63999938964844,117.1050033569336,117.1050033569336,7275
117.04000091552734,117.04000091552734,116.95999908447266,116.95999908447266,856
116.7699966430664,117.16999816894531,116.76000213623047,116.93000030517578,971
116.96499633789062,117.06999969482422,116.96499633789062,117.05500030517578,1987
117.0,117.0,116.87999725341797,116.9800033569336,4061
117.06999969482422,117.06999969482422,116.80000305175781,116.80000305175781,2583
116.87000274658203,116.88500213623047,116.87000274658203,116.88500213623047,562
116.88999938964844,117.40750122070312,116.87000274658203,117.2750015258789,9401
117.18000030517578,117.26000213623047,117.06999969482422,117.06999969482422,7035
116.95999908447266,116.95999908447266,116.95999908447266,116.95999908447266,532
117.11000061035156,117.11499786376953,116.9000015258789,116.91000366210938,1447
117.05999755859375,117.05999755859375,116.95999908447266,116.95999908447266,331
117.08999633789062,117.16999816894531,117.01000213623047,117.0199966430664,7608
116.95999908447266,117.06999969482422,116.94000244140625,116.94000244140625,950
116.98500061035156,117.01000213623047,116.98500061035156,117.01000213623047,1069
116.97000122070312,117.01499938964844,116.93000030517578,116.9800033569336,2275
116.83999633789062,116.87999725341797,116.63999938964844,116.63999938964844,1215
116.30000305175781,116.48999786376953,116.27999877929688,116.48999786376953,2832
116.75,116.75,116.5199966430664,116.5199966430664,1609
116.52999877929688,116.72000122070312,116.5,116.56999969482422,1929
116.55000305175781,116.58999633789062,116.54000091552734,116.55999755859375,4123
116.55500030517578,116.55999755859375,116.36000061035156,116.37000274658203,1462
116.36000061035156,116.51000213623047,116.36000061035156,116.44000244140625,3849
116.44000244140625,116.4800033569336,116.37000274658203,116.4625015258789,9123
116.3499984741211,116.42500305175781,116.3499984741211,116.3499984741211,1240
116.31999969482422,116.58000183105469,116.31999969482422,116.53500366210938,4110
116.69999694824219,116.86820220947266,116.69000244140625,116.70999908447266,1312
116.7699966430664,116.87000274658203,116.69999694824219,116.72000122070312,3824
116.83999633789062,116.83999633789062,116.61499786376953,116.63999938964844,1904
116.66000366210938,116.76499938964844,116.55000305175781,116.76499938964844,2491
116.70999908447266,116.70999908447266,116.56999969482422,116.58999633789062,2063
116.5999984741211,116.6500015258789,116.52999877929688,116.63999938964844,2021
116.63999938964844,116.70999908447266,116.56999969482422,116.69499969482422,2132
116.80999755859375,116.80999755859375,116.73750305175781,116.76000213623047,900
116.7699966430664,116.79000091552734,116.7699966430664,116.77999877929688,1004
116.73999786376953,116.7699966430664,116.70999908447266,116.7699966430664,2015
116.8125,116.83999633789062,116.79000091552734,116.83000183105469,1116
116.8499984741211,116.8499984741211,116.68000030517578,116.75499725341797,6539
116.80999755859375,116.86000061035156,116.80999755859375,116.83000183105469,1248
116.69999694824219,116.83000183105469,116.69000244140625,116.69000244140625,2932
116.66999816894531,116.66999816894531,116.43000030517578,116.43000030517578,5358
116.41500091552734,116.53500366210938,116.38999938964844,116.53500366210938,1592
116.67500305175781,116.67500305175781,116.56999969482422,116.62999725341797,1024
116.76000213623047,116.76000213623047,116.58000183105469,116.58000183105469,1753
116.58999633789062,116.6500015258789,116.58000183105469,116.63999938964844,1654
116.73999786376953,116.73999786376953,116.63999938964844,116.67500305175781,2261
116.69000244140625,116.7699966430664,116.69000244140625,116.7699966430664,1389
116.94999694824219,117.05999755859375,116.9000015258789,116.93229675292969,1183
116.88999938964844,116.9000015258789,116.78459930419922,116.78459930419922,3059
116.70999908447266,116.70999908447266,116.70999908447266,116.70999908447266,517
116.6500015258789,116.8302993774414,116.62000274658203,116.8302993774414,1304
116.68000030517578,116.81999969482422,116.68000030517578,116.81999969482422,925
116.80999755859375,116.80999755859375,116.7699966430664,116.7699966430664,2195
116.80000305175781,116.83999633789062,116.7699966430664,116.7699966430664,1546
116.72000122070312,116.90989685058594,116.72000122070312,116.8499984741211,1550
116.88999938964844,116.93000030517578,116.88999938964844,116.93000030517578,2636
116.9800033569336,117.0999984741211,116.95999908447266,117.0999984741211,983
117.02999877929688,117.02999877929688,116.95999908447266,116.98999786376953,1390
117.06999969482422,117.11000061035156,117.01000213623047,117.01000213623047,2573
116.93000030517578,116.93000030517578,116.56999969482422,116.56999969482422,1019
116.62999725341797,116.63999938964844,116.48999786376953,116.55000305175781,2609
116.54000091552734,116.63500213623047,116.47000122070312,116.56999969482422,2078
116.55999755859375,116.62000274658203,116.55999755859375,116.61000061035156,1142
116.5999984741211,116.5999984741211,116.5,116.5,2177
116.54000091552734,116.54000091552734,116.51499938964844,116.51499938964844,667
116.45999908447266,116.47000122070312,116.31999969482422,116.41000366210938,3573
116.45999908447266,116.45999908447266,116.30000305175781,116.37000274658203,1879
116.44999694824219,116.46499633789062,116.43000030517578,116.46499633789062,1483
116.41000366210938,116.51000213623047,116.4000015258789,116.44999694824219,2793
116.41000366210938,116.58000183105469,116.41000366210938,116.5199966430664,5845
116.47000122070312,116.47000122070312,116.19999694824219,116.30999755859375,6020
116.30000305175781,116.47000122070312,116.27999877929688,116.37999725341797,7825
116.55000305175781,116.72000122070312,116.37999725341797,116.55999755859375,14497
116.54000091552734,116.5999984741211,116.37000274658203,116.55000305175781,23313
116.47,116.55,116.47,116.55,0
115.5199966430664,115.5199966430664,115.5199966430664,115.5199966430664,1399
115.08000183105469,115.08000183105469,115.08000183105469,115.08000183105469,940
116.22000122070312,116.22000122070312,116.22000122070312,116.22000122070312,304
116.4749984741211,116.4749984741211,115.73999786376953,115.73999786376953,1497
115.63999938964844,115.63999938964844,115.63999938964844,115.63999938964844,191
115.7699966430664,115.77999877929688,115.36000061035156,115.77999877929688,2307
116.16999816894531,116.54000091552734,116.16999816894531,116.29000091552734,1877
116.08999633789062,116.12999725341797,115.9800033569336,116.12999725341797,2567
116.02999877929688,116.52999877929688,116.02999877929688,116.52999877929688,2831
116.5,116.5,116.5,116.5,405
116.5199966430664,116.75499725341797,116.4800033569336,116.63999938964844,3236
116.62999725341797,116.62999725341797,116.62999725341797,116.62999725341797,550
116.7699966430664,116.91000366210938,116.7699966430664,116.80999755859375,1616
116.91999816894531,117.06999969482422,116.87000274658203,117.06999969482422,1673
117.06999969482422,117.08000183105469,116.87000274658203,116.87000274658203,1659
116.95999908447266,117.1500015258789,116.95999908447266,117.05000305175781,713
116.9800033569336,116.99500274658203,116.87000274658203,116.8949966430664,1659
116.81999969482422,116.91000366210938,116.7300033569336,116.88059997558594,2240
116.8499984741211,117.05999755859375,116.55000305175781,116.9800033569336,1958
117.19000244140625,117.19000244140625,117.01000213623047,117.01000213623047,5331
116.95999908447266,117.19999694824219,116.9000015258789,117.13999938964844,5831
117.18499755859375,117.25,117.18499755859375,117.25,1123
117.12000274658203,117.1500015258789,117.05000305175781,117.05000305175781,1576
116.91000366210938,116.9800033569336,116.7300033569336,116.76499938964844,1683
116.7300033569336,116.7300033569336,116.62999725341797,116.62999725341797,1011
116.75,116.83000183105469,116.75,116.83000183105469,1102
116.8499984741211,116.8499984741211,116.8499984741211,116.8499984741211,1766
116.93000030517578,116.93000030517578,116.73999786376953,116.73999786376953,1449
116.7699966430664,116.79000091552734,116.68000030517578,116.68000030517578,1405
116.80500030517578,116.80500030517578,116.80500030517578,116.80500030517578,271
116.69999694824219,116.80500030517578,116.69999694824219,116.76000213623047,1422
116.7300033569336,116.80000305175781,116.7300033569336,116.76000213623047,1263
116.87000274658203,116.99500274658203,116.87000274658203,116.87000274658203,2193
116.94499969482422,116.94499969482422,116.79000091552734,116.79000091552734,1425
116.61000061035156,116.83000183105469,116.61000061035156,116.83000183105469,1453
116.83000183105469,116.83999633789062,116.70999908447266,116.7300033569336,1314
116.63999938964844,116.93689727783203,116.62999725341797,116.93689727783203,1046
116.69000244140625,116.69000244140625,116.58999633789062,116.6500015258789,1406
116.58000183105469,116.58000183105469,116.16000366210938,116.31999969482422,2450
116.08000183105469,116.08000183105469,116.01000213623047,116.01000213623047,1189
115.9000015258789,116.16999816894531,115.9000015258789,116.06999969482422,1216
116.01000213623047,116.01000213623047,115.93000030517578,115.93000030517578,525
115.93000030517578,115.9800033569336,115.79000091552734,115.79000091552734,1737
115.94000244140625,115.95999908447266,115.9000015258789,115.95999908447266,1108
115.80000305175781,115.80000305175781,115.66500091552734,115.66500091552734,1593
115.55999755859375,115.61000061035156,115.55000305175781,115.61000061035156,544
115.61499786376953,115.61499786376953,115.54000091552734,115.54000091552734,986
115.37000274658203,115.37000274658203,115.13999938964844,115.13999938964844,344
115.12000274658203,115.16000366210938,115.05999755859375,115.05999755859375,4309
115.0,115.06999969482422,115.0,115.06999969482422,1766
115.05000305175781,115.05000305175781,114.91999816894531,114.97000122070312,1150
114.94000244140625,114.95999908447266,114.94000244140625,114.94000244140625,871
115.05000305175781,115.05000305175781,114.73999786376953,114.73999786376953,2755
114.66999816894531,114.8499984741211,114.56300354003906,114.56300354003906,3127
114.69999694824219,114.73999786376953,114.45999908447266,114.4800033569336,2249
114.4000015258789,114.4000015258789,114.2699966430664,114.2699966430664,1331
114.12000274658203,114.36000061035156,114.12000274658203,114.36000061035156,760
114.47000122070312,114.69999694824219,114.41999816894531,114.48999786376953,1771
114.6500015258789,114.6500015258789,114.6500015258789,114.6500015258789,678
114.54000091552734,114.75,114.54000091552734,114.66000366210938,1169
114.6624984741211,114.69000244140625,114.5999984741211,114.69000244140625,1758
114.68499755859375,114.91000366210938,114.68499755859375,114.72000122070312,3506
114.74500274658203,114.76499938964844,114.62000274658203,114.62000274658203,3129
114.69000244140625,114.69000244140625,114.33999633789062,114.33999633789062,3049
114.5199966430664,114.56999969482422,114.4749984741211,114.56999969482422,2095
114.625,114.73999786376953,114.625,114.73999786376953,712
114.80000305175781,114.87000274658203,114.79000091552734,114.81999969482422,1754
114.87999725341797,114.87999725341797,114.5199966430664,114.5199966430664,3382
114.44999694824219,114.45999908447266,114.44999694824219,114.45999908447266,2045
114.47000122070312,114.56999969482422,114.44999694824219,114.48999786376953,2403
114.26000213623047,114.26000213623047,114.08000183105469,114.18000030517578,2281
114.19999694824219,114.55999755859375,114.1449966430664,114.2699966430664,8691
114.18000030517578,114.23999786376953,113.94000244140625,113.94000244140625,5577
113.87999725341797,113.91999816894531,113.76499938964844,113.87000274658203,5413
113.83000183105469,114.08000183105469,113.66000366210938,114.0199966430664,14385
114.06999969482422,114.70999908447266,114.06999969482422,114.61000061035156,66685
114.52,114.61,114.52,114.61,0
115.04000091552734,115.81999969482422,115.04000091552734,115.66999816894531,2112
115.2699966430664,115.2699966430664,114.94000244140625,114.94000244140625,1188
115.44999694824219,115.44999694824219,115.44999694824219,115.44999694824219,1263
115.75,115.7699966430664,115.69499969482422,115.69499969482422,859
115.63999938964844,116.04000091552734,115.63999938964844,115.87999725341797,2645
115.79750061035156,115.79750061035156,115.62999725341797,115.62999725341797,905
115.7699966430664,115.97000122070312,115.7699966430664,115.87999725341797,1474
116.13999938964844,116.13999938964844,115.75,115.75,3558
115.88999938964844,116.08000183105469,115.88999938964844,116.05000305175781,1191
116.13999938964844,116.16999816894531,116.08000183105469,116.11000061035156,732
116.19999694824219,116.42500305175781,116.14250183105469,116.42500305175781,961
116.44000244140625,116.44000244140625,116.22000122070312,116.22000122070312,3180
115.88999938964844,115.94999694824219,115.79499816894531,115.94999694824219,2177
116.06999969482422,116.16000366210938,116.06999969482422,116.16000366210938,1219
115.83999633789062,115.83999633789062,115.7699966430664,115.7699966430664,673
115.58999633789062,115.58999633789062,115.58999633789062,115.58999633789062,370
115.73999786376953,115.73999786376953,115.19999694824219,115.19999694824219,4139
115.55999755859375,115.61000061035156,115.55999755859375,115.55999755859375,1439
115.48999786376953,115.48999786376953,115.48999786376953,115.48999786376953,420
115.45999908447266,115.45999908447266,115.22000122070312,115.30000305175781,1256
115.2699966430664,115.2699966430664,115.25,115.25,516
115.37000274658203,115.37000274658203,115.30000305175781,115.31500244140625,613
115.30999755859375,115.30999755859375,115.20999908447266,115.20999908447266,889
115.06999969482422,115.13999938964844,115.06999969482422,115.13999938964844,877
114.93499755859375,114.93499755859375,114.91000366210938,114.91000366210938,1033
115.20999908447266,115.20999908447266,115.20999908447266,115.20999908447266,418
115.29499816894531,115.3499984741211,115.29000091552734,115.31999969482422,1308
115.28099822998047,115.48999786376953,115.22000122070312,115.4000015258789,5924
115.38999938964844,115.4000015258789,115.19999694824219,115.23500061035156,3986
115.23999786376953,115.29000091552734,115.16999816894531,115.16999816894531,1993
115.02999877929688,115.06999969482422,114.83000183105469,114.83000183105469,2063
114.83000183105469,114.94999694824219,114.83000183105469,114.94000244140625,896
115.09110260009766,115.09110260009766,115.0,115.0,692
114.98999786376953,114.98999786376953,114.88999938964844,114.88999938964844,1213
114.86000061035156,115.02999877929688,114.7699966430664,114.7699966430664,1837
114.77649688720703,114.77999877929688,114.72000122070312,114.77999877929688,656
114.76000213623047,114.76000213623047,114.68000030517578,114.68000030517578,1162
114.56999969482422,114.69000244140625,114.56999969482422,114.69000244140625,729
114.87999725341797,114.87999725341797,114.87999725341797,114.87999725341797,667
114.92500305175781,114.92500305175781,114.76000213623047,114.76000213623047,1218
114.625,114.625,114.58000183105469,114.58000183105469,1316
114.45999908447266,114.45999908447266,114.19000244140625,114.19000244140625,8411
114.12000274658203,114.23999786376953,114.0250015258789,114.23999786376953,2711
114.16999816894531,114.16999816894531,114.12000274658203,114.12000274658203,1068
113.58999633789062,113.58999633789062,113.33999633789062,113.37000274658203,1877
113.23999786376953,113.38999938964844,112.97000122070312,113.38999938964844,2899
113.31999969482422,113.58000183105469,113.29000091552734,113.58000183105469,1255
113.37999725341797,113.37999725341797,113.33000183105469,113.33000183105469,775
113.0999984741211,113.2300033569336,112.87000274658203,113.20999908447266,3603
113.12000274658203,113.41999816894531,112.91000366210938,113.3499984741211,2596
113.41999816894531,113.5199966430664,113.19000244140625,113.5,2286
113.86000061035156,113.94999694824219,113.86000061035156,113.94999694824219,1073
113.91000366210938,114.1500015258789,113.79000091552734,113.79000091552734,2410
113.75,113.75,113.58999633789062,113.58999633789062,1544
113.66000366210938,113.94000244140625,113.63999938964844,113.94000244140625,2283
114.05999755859375,114.1500015258789,114.01499938964844,114.08000183105469,1431
113.94999694824219,113.94999694824219,113.54000091552734,113.54000091552734,4688
113.41999816894531,113.41999816894531,113.41999816894531,113.41999816894531,627
113.25,113.25,113.13999938964844,113.19999694824219,2407
113.30000305175781,113.80000305175781,113.30000305175781,113.68000030517578,2963
113.51000213623047,113.93499755859375,113.48999786376953,113.84500122070312,2435
113.91500091552734,113.91500091552734,113.43000030517578,113.43000030517578,3529
113.42500305175781,113.45999908447266,113.3499984741211,113.38500213623047,3113
113.43000030517578,113.5,113.37999725341797,113.4000015258789,3326
113.33999633789062,113.55999755859375,113.30000305175781,113.3499984741211,3487
113.41999816894531,113.58000183105469,113.38999938964844,113.54000091552734,3631
113.72000122070312,113.72000122070312,113.37999725341797,113.61000061035156,8413
113.5999984741211,113.7699966430664,113.44000244140625,113.44000244140625,5131
113.44000244140625,113.69999694824219,113.29000091552734,113.5999984741211,5994
113.6050033569336,113.9800033569336,113.5,113.9800033569336,9557
113.97000122070312,113.97000122070312,113.68000030517578,113.75499725341797,16051
113.80000305175781,114.05000305175781,113.55999755859375,113.70999908447266,28847
113.71,113.71,113.71,113.71,0
113.0,113.0,113.0,113.0,0
113.70999908447266,113.70999908447266,112.4800033569336,113.0199966430664,2423
114.47000122070312,114.47000122070312,114.47000122070312,114.47000122070312,348
113.68000030517578,113.69000244140625,113.68000030517578,113.69000244140625,999
113.27999877929688,113.5770034790039,113.0199966430664,113.5770034790039,2350
113.43000030517578,113.43000030517578,112.95999908447266,113.05999755859375,1059
112.91000366210938,113.04000091552734,112.87000274658203,113.04000091552734,945
113.13999938964844,113.52999877929688,113.13999938964844,113.1500015258789,1888
112.80000305175781,112.80000305175781,112.4375,112.4375,2390
112.69000244140625,112.91000366210938,112.69000244140625,112.91000366210938,2091
112.77999877929688,112.77999877929688,112.77999877929688,112.77999877929688,373
112.94000244140625,112.94000244140625,112.56999969482422,112.56999969482422,4157
112.95999908447266,113.06999969482422,112.94999694824219,112.94999694824219,2510
112.93000030517578,112.93000030517578,112.8499984741211,112.8499984741211,278
112.94000244140625,112.94000244140625,112.8550033569336,112.8550033569336,1910
112.55000305175781,112.55000305175781,112.55000305175781,112.55000305175781,234
112.83000183105469,112.83000183105469,112.66999816894531,112.66999816894531,1434
112.6500015258789,112.66000366210938,112.6500015258789,112.66000366210938,1033
112.69999694824219,112.8499984741211,112.69999694824219,112.8499984741211,1103
112.80000305175781,113.02999877929688,112.80000305175781,113.02999877929688,1349
112.80000305175781,112.94999694824219,112.7300033569336,112.94999694824219,1485
112.79000091552734,112.93609619140625,112.79000091552734,112.79000091552734,1413
112.87000274658203,113.05000305175781,112.87000274658203,113.05000305175781,1285
113.22000122070312,113.26000213623047,113.04000091552734,113.05999755859375,1645
112.97709655761719,112.97709655761719,112.97709655761719,112.97709655761719,271
113.0999984741211,113.0999984741211,112.94000244140625,112.94000244140625,1212
113.16999816894531,113.16999816894531,113.04000091552734,113.04000091552734,691
112.98999786376953,112.98999786376953,112.9000015258789,112.9000015258789,1154
113.11000061035156,113.12999725341797,113.11000061035156,113.12999725341797,983
113.30999755859375,113.48999786376953,113.30999755859375,113.42500305175781,1754
113.4800033569336,113.68000030517578,113.4800033569336,113.66000366210938,1458
113.61000061035156,113.61000061035156,113.61000061035156,113.61000061035156,560
113.5,113.5,113.41999816894531,113.41999816894531,909
113.52999877929688,113.52999877929688,113.52999877929688,113.52999877929688,152
113.62999725341797,113.6500015258789,113.62999725341797,113.6500015258789,964
113.61000061035156,113.61000061035156,113.61000061035156,113.61000061035156,1011
113.6500015258789,113.76000213623047,113.6500015258789,113.68000030517578,875
113.69999694824219,113.69999694824219,113.62999725341797,113.6500015258789,1227
113.69999694824219,113.69999694824219,113.62000274658203,113.6500015258789,1067
113.72000122070312,113.76000213623047,113.72000122070312,113.76000213623047,1569
113.51000213623047,113.54000091552734,113.51000213623047,113.54000091552734,1197
113.50499725341797,113.50499725341797,113.13999938964844,113.13999938964844,1789
113.41000366210938,113.41000366210938,113.41000366210938,113.41000366210938,1214
113.04000091552734,113.4000015258789,112.9800033569336,113.4000015258789,2058
113.25,113.29000091552734,113.1500015258789,113.29000091552734,1722
113.22000122070312,113.22000122070312,112.98999786376953,112.98999786376953,1333
112.95999908447266,113.0,112.66000366210938,112.69999694824219,2710
112.6500015258789,112.95999908447266,112.6500015258789,112.80999755859375,1995
112.62000274658203,112.83999633789062,112.62000274658203,112.83999633789062,829
112.72000122070312,112.77999877929688,112.56999969482422,112.77999877929688,1951
112.7249984741211,113.25,112.7249984741211,113.25,3423
113.23999786376953,113.23999786376953,113.0999984741211,113.20500183105469,4016
113.26000213623047,113.37999725341797,113.26000213623047,113.31999969482422,1010
113.38999938964844,113.75,113.25,113.66999816894531,4818
113.38999938964844,113.66000366210938,113.37000274658203,113.56500244140625,1753
113.81999969482422,113.81999969482422,113.68000030517578,113.70999908447266,3189
113.94999694824219,113.94999694824219,113.81999969482422,113.83000183105469,1701
113.83000183105469,113.83000183105469,113.69999694824219,113.72000122070312,3033
113.87999725341797,114.08999633789062,113.83999633789062,113.93000030517578,3591
114.0199966430664,114.0199966430664,113.91999816894531,113.91999816894531,1443
114.04000091552734,114.11000061035156,113.9000015258789,114.11000061035156,1745
113.95999908447266,114.12000274658203,113.9000015258789,114.12000274658203,3213
114.04000091552734,114.22000122070312,113.93000030517578,114.19999694824219,4938
114.2249984741211,114.2249984741211,113.95999908447266,113.95999908447266,2066
113.96900177001953,114.11000061035156,113.96900177001953,114.08999633789062,2221
114.08999633789062,114.18000030517578,114.08999633789062,114.12650299072266,3537
114.12999725341797,114.51000213623047,114.11000061035156,114.51000213623047,5190
114.4800033569336,114.4800033569336,114.23999786376953,114.23999786376953,3799
114.19999694824219,114.2699966430664,114.06999969482422,114.22000122070312,6192
114.22000122070312,114.45999908447266,114.01000213623047,114.3550033569336,12474
114.05000305175781,114.0999984741211,113.83000183105469,114.01000213623047,19588
114.04000091552734,114.26000213623047,113.91000366210938,114.02999877929688,43436
114.1,114.1,114.1,114.1,56471
114.1,114.1,114.1,114.1,0
114.25,114.50499725341797,114.25,114.50499725341797,1524
114.15499877929688,114.15499877929688,114.15499877929688,114.15499877929688,222
114.19999694824219,114.25,114.05000305175781,114.05000305175781,1269
114.05000305175781,114.05000305175781,114.00520324707031,114.00520324707031,2000
113.83999633789062,113.83999633789062,113.53009796142578,113.53009796142578,1247
113.31999969482422,113.31999969482422,113.19000244140625,113.19000244140625,1817
113.41999816894531,113.61000061035156,113.41999816894531,113.61000061035156,515
113.45999908447266,113.45999908447266,113.19000244140625,113.19000244140625,1357
113.29000091552734,113.44000244140625,113.19039916992188,113.19039916992188,1690
113.26000213623047,113.26000213623047,113.20500183105469,113.20500183105469,558
113.2925033569336,113.30999755859375,113.2925033569336,113.30999755859375,1006
113.28500366210938,113.54000091552734,113.0999984741211,113.44999694824219,8417
113.45059967041016,113.62999725341797,113.4219970703125,113.43000030517578,2022
113.31999969482422,113.45999908447266,113.26000213623047,113.44999694824219,2042
113.44999694824219,113.55000305175781,113.44999694824219,113.55000305175781,360
113.47000122070312,113.51499938964844,113.47000122070312,113.51499938964844,527
113.44999694824219,113.62000274658203,113.43499755859375,113.56999969482422,15250
113.61000061035156,113.70500183105469,113.61000061035156,113.69999694824219,675
113.93000030517578,114.0,113.91000366210938,114.0,2116
113.91999816894531,113.91999816894531,113.77999877929688,113.77999877929688,3422
113.95999908447266,114.08999633789062,113.90499877929688,113.90499877929688,3509
114.0199966430664,114.19999694824219,113.95999908447266,113.95999908447266,4142
114.05999755859375,114.08000183105469,114.05500030517578,114.08000183105469,535
114.13999938964844,114.2300033569336,113.9800033569336,113.9800033569336,1798
113.95999908447266,113.97000122070312,113.95999908447266,113.95999908447266,355
113.94999694824219,113.94999694824219,113.80000305175781,113.80000305175781,1482
113.91999816894531,113.91999816894531,113.91000366210938,113.91000366210938,987
114.00399780273438,114.18000030517578,114.00399780273438,114.18000030517578,1048
114.0199966430664,114.04000091552734,114.0,114.01499938964844,1949
114.12999725341797,114.1500015258789,114.08999633789062,114.13500213623047,1008
114.19999694824219,114.19999694824219,114.19999694824219,114.19999694824219,792
114.33830261230469,114.33830261230469,114.25499725341797,114.25499725341797,1307
114.30000305175781,114.30000305175781,114.30000305175781,114.30000305175781,563
114.22000122070312,114.25,114.16000366210938,114.25,1869
114.20999908447266,114.20999908447266,114.16999816894531,114.16999816894531,792
114.18000030517578,114.18000030517578,113.9800033569336,113.9800033569336,3437
114.02999877929688,114.06999969482422,114.02999877929688,114.05000305175781,1436
114.0999984741211,114.0999984741211,114.07499694824219,114.07499694824219,614
114.13999938964844,114.2300033569336,114.13999938964844,114.2300033569336,1006
114.3499984741211,114.41999816894531,114.19999694824219,114.27999877929688,927
114.2699966430664,114.34500122070312,114.2699966430664,114.34500122070312,1732
114.20999908447266,114.20999908447266,114.16999816894531,114.16999816894531,562
114.29000091552734,114.32499694824219,114.29000091552734,114.32499694824219,1376
114.2699966430664,114.27999877929688,114.18000030517578,114.25499725341797,2098
114.12000274658203,114.12000274658203,114.12000274658203,114.12000274658203,112
114.11000061035156,114.25,114.11000061035156,114.25,1965
114.18000030517578,114.20999908447266,114.16999816894531,114.20999908447266,1167
114.0999984741211,114.20999908447266,114.08000183105469,114.08000183105469,1644
114.0,114.0999984741211,114.0,114.0999984741211,2441
114.13999938964844,114.19999694824219,113.98639678955078,113.98639678955078,3701
113.95939636230469,114.02999877929688,113.95939636230469,114.02999877929688,583
114.08000183105469,114.2300033569336,113.63999938964844,113.98999786376953,6814
113.87000274658203,114.16000366210938,113.87000274658203,114.12000274658203,1117
113.97000122070312,114.08999633789062,113.83000183105469,114.08999633789062,1899
114.0999984741211,114.27999877929688,113.9800033569336,114.18199920654297,7237
114.2300033569336,114.55000305175781,114.2300033569336,114.44999694824219,7452
114.45999908447266,114.55999755859375,114.41000366210938,114.55999755859375,6059
114.52999877929688,115.01499938964844,114.52999877929688,114.78500366210938,5673
114.83000183105469,114.83000183105469,114.47000122070312,114.5,2836
114.70999908447266,114.72000122070312,114.61499786376953,114.67500305175781,1137
114.75,114.75,114.75,114.75,479
114.66999816894531,114.68000030517578,114.5999984741211,114.68000030517578,2181
114.68499755859375,114.7249984741211,114.66999816894531,114.70500183105469,2242
114.70500183105469,114.87000274658203,114.66999816894531,114.87000274658203,5269
115.0199966430664,115.0199966430664,114.87999725341797,114.95999908447266,1326
114.94999694824219,114.95999908447266,114.87999725341797,114.87999725341797,1800
114.80999755859375,114.99500274658203,114.80999755859375,114.99500274658203,1999
114.94999694824219,115.06500244140625,114.94000244140625,115.05000305175781,2441
115.00499725341797,115.02999877929688,114.95999908447266,114.96499633789062,1849
114.88999938964844,114.88999938964844,114.77999877929688,114.87999725341797,6727
114.9000015258789,114.95999908447266,114.79000091552734,114.87999725341797,5357
114.8499984741211,115.00499725341797,114.8499984741211,114.97000122070312,4341
114.8949966430664,115.04000091552734,114.86000061035156,115.04000091552734,14204
115.0199966430664,115.07599639892578,114.79000091552734,114.83999633789062,15346
114.87000274658203,114.91000366210938,114.5999984741211,114.66999816894531,34395
114.82,114.82,114.7,114.7,0
