Open,High,Low,Close,Volume
115.5199966430664,115.5199966430664,115.5199966430664,115.5199966430664,0
115.08000183105469,115.08000183105469,115.08000183105469,115.08000183105469,940
116.22000122070312,116.22000122070312,116.22000122070312,116.22000122070312,304
116.4749984741211,116.4749984741211,116.4749984741211,116.4749984741211,187
115.95999908447266,115.95999908447266,115.94000244140625,115.94999694824219,736
115.83000183105469,115.83000183105469,115.73999786376953,115.73999786376953,574
115.63999938964844,115.63999938964844,115.63999938964844,115.63999938964844,191
115.7699966430664,115.7699966430664,115.7699966430664,115.7699966430664,170
115.43000030517578,115.77999877929688,115.36000061035156,115.77999877929688,2137
116.16999816894531,116.31999969482422,116.16999816894531,116.16999816894531,715
116.19999694824219,116.54000091552734,116.19999694824219,116.54000091552734,300
116.19999694824219,116.29000091552734,116.19999694824219,116.29000091552734,862
116.08999633789062,116.08999633789062,116.08999633789062,116.08999633789062,151
116.05999755859375,116.08999633789062,115.9800033569336,116.05999755859375,1220
116.12000274658203,116.12999725341797,116.0999984741211,116.12999725341797,1196
116.02999877929688,116.02999877929688,116.02999877929688,116.02999877929688,388
116.16999816894531,116.16999816894531,116.16999816894531,116.16999816894531,100
116.27999877929688,116.52999877929688,116.19999694824219,116.52999877929688,2343
116.5,116.5,116.5,116.5,405
116.5199966430664,116.61000061035156,116.5199966430664,116.52999877929688,1310
116.4800033569336,116.55999755859375,116.4800033569336,116.55999755859375,245
116.62000274658203,116.75499725341797,116.62000274658203,116.75499725341797,1579
116.63999938964844,116.63999938964844,116.63999938964844,116.63999938964844,102
116.62999725341797,116.62999725341797,116.62999725341797,116.62999725341797,550
116.7699966430664,116.7699966430664,116.7699966430664,116.7699966430664,455
116.88999938964844,116.91000366210938,116.81999969482422,116.88500213623047,802
116.80999755859375,116.80999755859375,116.80999755859375,116.80999755859375,359
116.91999816894531,116.91999816894531,116.87000274658203,116.87000274658203,518
116.87999725341797,116.95999908447266,116.87000274658203,116.95999908447266,326
117.06999969482422,117.06999969482422,117.06999969482422,117.06999969482422,829
117.06999969482422,117.06999969482422,117.06999969482422,117.06999969482422,617
117.08000183105469,117.08000183105469,116.87000274658203,116.87000274658203,1042
116.95999908447266,117.1500015258789,116.95999908447266,117.1500015258789,593
117.05000305175781,117.05000305175781,117.05000305175781,117.05000305175781,120
116.9800033569336,116.99500274658203,116.91000366210938,116.99500274658203,907
116.87000274658203,116.87000274658203,116.87000274658203,116.87000274658203,110
116.94000244140625,116.94000244140625,116.8949966430664,116.8949966430664,642
116.81999969482422,116.83999633789062,116.7300033569336,116.7300033569336,1609
116.91000366210938,116.91000366210938,116.88059997558594,116.88059997558594,631
116.8499984741211,116.8499984741211,116.55000305175781,116.80999755859375,1530
117.05999755859375,117.05999755859375,116.9800033569336,116.9800033569336,428
117.19000244140625,117.19000244140625,117.09500122070312,117.1500015258789,2708
117.18000030517578,117.19000244140625,117.08999633789062,117.08999633789062,1204
117.0999984741211,117.0999984741211,117.01000213623047,117.01000213623047,1419
116.95999908447266,116.95999908447266,116.9000015258789,116.9000015258789,3319
117.04000091552734,117.19999694824219,117.04000091552734,117.1449966430664,1540
117.08999633789062,117.0999984741211,117.08519744873047,117.0999984741211,447
117.12999725341797,117.13999938964844,117.12999725341797,117.13999938964844,525
117.18499755859375,117.18499755859375,117.18499755859375,117.18499755859375,460
117.25,117.25,117.25,117.25,663
117.12000274658203,117.1500015258789,117.1050033569336,117.1500015258789,843
117.05999755859375,117.05999755859375,117.05999755859375,117.05999755859375,544
117.05000305175781,117.05000305175781,117.05000305175781,117.05000305175781,189
116.91000366210938,116.9800033569336,116.91000366210938,116.9800033569336,221
116.91500091552734,116.91500091552734,116.91500091552734,116.91500091552734,322
116.9000015258789,116.9000015258789,116.9000015258789,116.9000015258789,122
116.81999969482422,116.81999969482422,116.81999969482422,116.81999969482422,102
116.7300033569336,116.76499938964844,116.7300033569336,116.76499938964844,916
116.7300033569336,116.7300033569336,116.7300033569336,116.7300033569336,428
116.62999725341797,116.62999725341797,116.62999725341797,116.62999725341797,583
116.75,116.83000183105469,116.75,116.83000183105469,1102
116.8499984741211,116.8499984741211,116.8499984741211,116.8499984741211,1766
116.93000030517578,116.93000030517578,116.93000030517578,116.93000030517578,225
116.83999633789062,116.83999633789062,116.83999633789062,116.83999633789062,332
116.7699966430664,116.7699966430664,116.76000213623047,116.76000213623047,284
116.81999969482422,116.81999969482422,116.81999969482422,116.81999969482422,110
116.73999786376953,116.73999786376953,116.73999786376953,116.73999786376953,498
116.7699966430664,116.79000091552734,116.7699966430664,116.79000091552734,551
116.73999786376953,116.73999786376953,116.73999786376953,116.73999786376953,182
116.69000244140625,116.69000244140625,116.68000030517578,116.68000030517578,672
116.80500030517578,116.80500030517578,116.80500030517578,116.80500030517578,271
116.69999694824219,116.79000091552734,116.69999694824219,116.79000091552734,964
116.79000091552734,116.79000091552734,116.79000091552734,116.79000091552734,245
116.80500030517578,116.80500030517578,116.76000213623047,116.76000213623047,213
116.7300033569336,116.7300033569336,116.7300033569336,116.7300033569336,684
116.80000305175781,116.80000305175781,116.76000213623047,116.76000213623047,579
116.87000274658203,116.87000274658203,116.87000274658203,116.87000274658203,353
116.98999786376953,116.99500274658203,116.98999786376953,116.99500274658203,396
116.94000244140625,116.94000244140625,116.87000274658203,116.87000274658203,1444
116.94499969482422,116.94499969482422,116.81999969482422,116.86000061035156,728
116.79000091552734,116.79000091552734,116.79000091552734,116.79000091552734,697
116.61000061035156,116.6500015258789,116.61000061035156,116.6500015258789,430
116.79000091552734,116.83000183105469,116.7699966430664,116.83000183105469,1023
116.83000183105469,116.83000183105469,116.83000183105469,116.83000183105469,254
116.83999633789062,116.83999633789062,116.83999633789062,116.83999633789062,100
116.83999633789062,116.83999633789062,116.70999908447266,116.7300033569336,960
116.63999938964844,116.93689727783203,116.62999725341797,116.93689727783203,1046
116.69000244140625,116.69000244140625,116.58999633789062,116.6500015258789,1296
116.6500015258789,116.6500015258789,116.6500015258789,116.6500015258789,110
116.58000183105469,116.58000183105469,116.5,116.51000213623047,1306
116.26000213623047,116.26000213623047,116.26000213623047,116.26000213623047,101
116.25,116.25,116.25,116.25,415
116.16000366210938,116.31999969482422,116.16000366210938,116.31999969482422,628
116.08000183105469,116.08000183105469,116.08000183105469,116.08000183105469,338
116.05999755859375,116.05999755859375,116.05999755859375,116.05999755859375,358
116.01000213623047,116.01000213623047,116.01000213623047,116.01000213623047,493
115.9000015258789,116.02999877929688,115.9000015258789,116.02999877929688,860
116.16999816894531,116.16999816894531,116.16999816894531,116.16999816894531,100
116.06999969482422,116.06999969482422,116.06999969482422,116.06999969482422,256
116.01000213623047,116.01000213623047,115.93000030517578,115.93000030517578,525
115.93000030517578,115.93000030517578,115.93000030517578,115.93000030517578,223
115.8499984741211,115.9800033569336,115.8499984741211,115.86000061035156,968
115.79000091552734,115.79000091552734,115.79000091552734,115.79000091552734,546
115.94000244140625,115.94000244140625,115.94000244140625,115.94000244140625,175
115.91999816894531,115.91999816894531,115.91000366210938,115.91000366210938,315
115.9000015258789,115.9000015258789,115.9000015258789,115.9000015258789,490
115.95999908447266,115.95999908447266,115.95999908447266,115.95999908447266,128
115.80000305175781,115.80000305175781,115.70999908447266,115.70999908447266,838
115.70999908447266,115.70999908447266,115.70999908447266,115.70999908447266,414
115.66500091552734,115.66500091552734,115.66500091552734,115.66500091552734,341
115.55999755859375,115.55999755859375,115.55999755859375,115.55999755859375,101
115.55000305175781,115.55000305175781,115.55000305175781,115.55000305175781,174
115.61000061035156,115.61000061035156,115.61000061035156,115.61000061035156,269
115.61499786376953,115.61499786376953,115.54000091552734,115.54000091552734,986
115.37000274658203,115.37000274658203,115.13999938964844,115.13999938964844,344
115.12000274658203,115.12000274658203,115.12000274658203,115.12000274658203,836
115.16000366210938,115.16000366210938,115.13999938964844,115.13999938964844,1863
115.05999755859375,115.05999755859375,115.05999755859375,115.05999755859375,1610
115.0,115.06999969482422,115.0,115.06999969482422,1766
115.05000305175781,115.05000305175781,115.05000305175781,115.05000305175781,521
114.91999816894531,114.97000122070312,114.91999816894531,114.97000122070312,629
114.94000244140625,114.95999908447266,114.94000244140625,114.94000244140625,871
115.05000305175781,115.05000305175781,115.05000305175781,115.05000305175781,532
114.98999786376953,114.98999786376953,114.91000366210938,114.91000366210938,1527
114.80339813232422,114.80339813232422,114.80339813232422,114.80339813232422,363
114.73999786376953,114.73999786376953,114.73999786376953,114.73999786376953,333
114.66999816894531,114.66999816894531,114.66999816894531,114.66999816894531,1060
114.8499984741211,114.8499984741211,114.76000213623047,114.81999969482422,1048
114.73999786376953,114.73999786376953,114.56300354003906,114.56300354003906,1019
114.69999694824219,114.73999786376953,114.69000244140625,114.69000244140625,819
114.58000183105469,114.58000183105469,114.58000183105469,114.58000183105469,439
114.54000091552734,114.54000091552734,114.45999908447266,114.4800033569336,991
114.4000015258789,114.4000015258789,114.27999877929688,114.27999877929688,685
114.2699966430664,114.2699966430664,114.2699966430664,114.2699966430664,646
114.12000274658203,114.12000274658203,114.12000274658203,114.12000274658203,295
114.3499984741211,114.36000061035156,114.3499984741211,114.36000061035156,465
114.47000122070312,114.47000122070312,114.41999816894531,114.41999816894531,487
114.58000183105469,114.69999694824219,114.58000183105469,114.69000244140625,533
114.58999633789062,114.58999633789062,114.48999786376953,114.48999786376953,751
114.6500015258789,114.6500015258789,114.6500015258789,114.6500015258789,678
114.54000091552734,114.54000091552734,114.54000091552734,114.54000091552734,311
114.75,114.75,114.75,114.75,111
114.66000366210938,114.66000366210938,114.66000366210938,114.66000366210938,747
114.6624984741211,114.68499755859375,114.6624984741211,114.68499755859375,583
114.5999984741211,114.66999816894531,114.5999984741211,114.66999816894531,791
114.69000244140625,114.69000244140625,114.69000244140625,114.69000244140625,384
114.68499755859375,114.68499755859375,114.68499755859375,114.68499755859375,863
114.77999877929688,114.77999877929688,114.77999877929688,114.77999877929688,346
114.91000366210938,114.91000366210938,114.91000366210938,114.91000366210938,576
114.80500030517578,114.80500030517578,114.72000122070312,114.72000122070312,1721
114.74500274658203,114.76499938964844,114.69000244140625,114.76499938964844,914
114.66999816894531,114.66999816894531,114.66000366210938,114.66999816894531,835
114.62000274658203,114.6500015258789,114.62000274658203,114.62000274658203,1380
114.69000244140625,114.69000244140625,114.69000244140625,114.69000244140625,528
114.66999816894531,114.66999816894531,114.63999938964844,114.63999938964844,609
114.69000244140625,114.69000244140625,114.63999938964844,114.63999938964844,409
114.56999969482422,114.56999969482422,114.33999633789062,114.33999633789062,1503
114.5199966430664,114.5199966430664,114.4749984741211,114.4749984741211,866
114.56999969482422,114.56999969482422,114.56999969482422,114.56999969482422,1229
114.625,114.625,114.625,114.625,339
114.73999786376953,114.73999786376953,114.73999786376953,114.73999786376953,373
114.80000305175781,114.80000305175781,114.79000091552734,114.79000091552734,267
114.83999633789062,114.83999633789062,114.83999633789062,114.83999633789062,368
114.87000274658203,114.87000274658203,114.81999969482422,114.81999969482422,1119
114.87999725341797,114.87999725341797,114.68000030517578,114.68000030517578,2357
114.61000061035156,114.61000061035156,114.5199966430664,114.5199966430664,1025
114.44999694824219,114.44999694824219,114.44999694824219,114.44999694824219,1163
114.45999908447266,114.45999908447266,114.45999908447266,114.45999908447266,882
114.47000122070312,114.5,114.44999694824219,114.44999694824219,768
114.56999969482422,114.56999969482422,114.56999969482422,114.56999969482422,465
114.56999969482422,114.56999969482422,114.48999786376953,114.48999786376953,1170
114.26000213623047,114.26000213623047,114.1500015258789,114.1500015258789,505
114.16500091552734,114.17500305175781,114.16500091552734,114.17500305175781,311
114.08000183105469,114.1500015258789,114.08000183105469,114.1500015258789,585
114.1449966430664,114.18000030517578,114.08999633789062,114.18000030517578,880
114.19999694824219,114.19999694824219,114.19999694824219,114.19999694824219,160
114.1449966430664,114.23999786376953,114.1449966430664,114.20999908447266,1751
114.25,114.55999755859375,114.25,114.37000274658203,4615
114.44999694824219,114.44999694824219,114.36000061035156,114.36000061035156,565
114.36000061035156,114.36000061035156,114.2699966430664,114.2699966430664,1600
114.18000030517578,114.23999786376953,114.09500122070312,114.19000244140625,1821
114.0999984741211,114.0999984741211,113.94999694824219,113.94999694824219,412
113.98999786376953,113.98999786376953,113.94000244140625,113.94000244140625,422
113.9800033569336,114.0,113.9800033569336,113.98500061035156,1603
113.98999786376953,113.98999786376953,113.94000244140625,113.94000244140625,1319
113.87999725341797,113.91999816894531,113.87000274658203,113.87000274658203,621
113.80999755859375,113.83000183105469,113.76499938964844,113.83000183105469,1783
113.8499984741211,113.8499984741211,113.8499984741211,113.8499984741211,350
113.7699966430664,113.7699966430664,113.7699966430664,113.7699966430664,702
113.79000091552734,113.87000274658203,113.79000091552734,113.87000274658203,1957
113.83000183105469,113.87999725341797,113.66000366210938,113.82579803466797,3445
113.76000213623047,113.88999938964844,113.76000213623047,113.88999938964844,1510
113.97000122070312,114.08000183105469,113.97000122070312,114.05500030517578,3159
114.01000213623047,114.01000213623047,113.93499755859375,113.94000244140625,2778
113.94000244140625,114.05999755859375,113.94000244140625,114.0199966430664,3493
114.06999969482422,114.45999908447266,114.06999969482422,114.44999694824219,8281
114.37999725341797,114.61000061035156,114.37000274658203,114.58000183105469,14640
114.58000183105469,114.61000061035156,114.47000122070312,114.5,12917
114.5199966430664,114.70999908447266,114.51000213623047,114.69000244140625,14721
114.68000030517578,114.69000244140625,114.55000305175781,114.61000061035156,16126
114.52,114.61,114.52,114.61,36269
114.61,114.61,114.61,114.61,0
114.61,114.61,114.61,114.61,0
115.04000091552734,115.81999969482422,115.04000091552734,115.50499725341797,1284
115.38999938964844,115.38999938964844,115.37000274658203,115.37000274658203,498
115.20999908447266,115.66999816894531,115.20999908447266,115.66999816894531,330
115.2699966430664,115.2699966430664,114.94000244140625,114.94000244140625,1188
115.44999694824219,115.44999694824219,115.44999694824219,115.44999694824219,298
115.44999694824219,115.44999694824219,115.44999694824219,115.44999694824219,965
115.75,115.7699966430664,115.69499969482422,115.69499969482422,859
115.63999938964844,116.04000091552734,115.63999938964844,115.69999694824219,2375
115.87999725341797,115.87999725341797,115.87999725341797,115.87999725341797,270
115.79750061035156,115.79750061035156,115.79750061035156,115.79750061035156,100
115.75499725341797,115.75499725341797,115.62999725341797,115.62999725341797,805
115.7699966430664,115.7699966430664,115.7699966430664,115.7699966430664,320
115.97000122070312,115.97000122070312,115.97000122070312,115.97000122070312,339
115.87999725341797,115.87999725341797,115.87999725341797,115.87999725341797,564
115.87999725341797,115.87999725341797,115.87999725341797,115.87999725341797,251
116.13999938964844,116.13999938964844,116.04000091552734,116.04000091552734,340
116.12000274658203,116.13999938964844,116.02999877929688,116.02999877929688,1294
115.80000305175781,115.94499969482422,115.79000091552734,115.93000030517578,1315
115.7699966430664,115.7699966430664,115.75,115.75,609
115.88999938964844,115.88999938964844,115.88999938964844,115.88999938964844,352
116.05999755859375,116.08000183105469,116.05999755859375,116.08000183105469,407
116.06500244140625,116.06500244140625,116.05000305175781,116.05000305175781,432
116.13999938964844,116.13999938964844,116.08000183105469,116.08000183105469,374
116.16999816894531,116.16999816894531,116.11000061035156,116.11000061035156,358
116.19999694824219,116.31999969482422,116.19999694824219,116.31999969482422,431
116.14250183105469,116.14250183105469,116.14250183105469,116.14250183105469,167
116.39209747314453,116.42500305175781,116.39209747314453,116.42500305175781,363
116.44000244140625,116.44000244140625,116.36499786376953,116.38999938964844,829
116.3499984741211,116.3499984741211,116.22000122070312,116.22000122070312,2351
115.88999938964844,115.9000015258789,115.88999938964844,115.9000015258789,590
115.93000030517578,115.93000030517578,115.93000030517578,115.93000030517578,537
115.79499816894531,115.79499816894531,115.79499816894531,115.79499816894531,841
115.94999694824219,115.94999694824219,115.94999694824219,115.94999694824219,209
116.06999969482422,116.06999969482422,116.06999969482422,116.06999969482422,245
116.16000366210938,116.16000366210938,116.16000366210938,116.16000366210938,974
115.83999633789062,115.83999633789062,115.7699966430664,115.7699966430664,673
115.58999633789062,115.58999633789062,115.58999633789062,115.58999633789062,370
115.73999786376953,115.73999786376953,115.44000244140625,115.5199966430664,2068
115.48999786376953,115.48999786376953,115.48999786376953,115.48999786376953,210
115.48999786376953,115.48999786376953,115.44000244140625,115.44000244140625,1563
115.19999694824219,115.19999694824219,115.19999694824219,115.19999694824219,298
115.55999755859375,115.61000061035156,115.55999755859375,115.55999755859375,1439
115.48999786376953,115.48999786376953,115.48999786376953,115.48999786376953,420
115.45999908447266,115.45999908447266,115.33000183105469,115.33000183105469,606
115.22000122070312,115.22000122070312,115.22000122070312,115.22000122070312,337
115.30999755859375,115.30999755859375,115.30000305175781,115.30000305175781,313
115.2699966430664,115.2699966430664,115.25,115.25,516
115.37000274658203,115.37000274658203,115.30000305175781,115.31500244140625,613
115.30999755859375,115.30999755859375,115.30999755859375,115.30999755859375,480
115.20999908447266,115.20999908447266,115.20999908447266,115.20999908447266,409
115.06999969482422,115.13999938964844,115.06999969482422,115.13999938964844,877
114.93499755859375,114.93499755859375,114.91000366210938,114.91000366210938,308
114.91000366210938,114.91000366210938,114.91000366210938,114.91000366210938,725
115.20999908447266,115.20999908447266,115.20999908447266,115.20999908447266,418
115.29499816894531,115.3499984741211,115.29000091552734,115.31999969482422,1041
115.31999969482422,115.31999969482422,115.31999969482422,115.31999969482422,267
115.28099822998047,115.28099822998047,115.28099822998047,115.28099822998047,247
115.2699966430664,115.43000030517578,115.22000122070312,115.41999816894531,3535
115.38500213623047,115.48999786376953,115.30999755859375,115.4000015258789,2142
115.38999938964844,115.4000015258789,115.31999969482422,115.31999969482422,2478
115.2699966430664,115.2699966430664,115.19999694824219,115.20999908447266,495
115.2499008178711,115.25,115.2300033569336,115.23500061035156,1013
115.23999786376953,115.25,115.23999786376953,115.23999786376953,472
115.23999786376953,115.29000091552734,115.18000030517578,115.18000030517578,1021
115.16999816894531,115.16999816894531,115.16999816894531,115.16999816894531,500
115.02999877929688,115.02999877929688,115.02999877929688,115.02999877929688,254
115.0199966430664,115.0199966430664,114.95999908447266,114.95999908447266,881
114.86000061035156,115.06999969482422,114.83999633789062,114.94999694824219,652
114.83000183105469,114.83000183105469,114.83000183105469,114.83000183105469,276
114.83000183105469,114.83000183105469,114.83000183105469,114.83000183105469,477
114.94000244140625,114.94999694824219,114.94000244140625,114.94000244140625,419
115.09110260009766,115.09110260009766,115.09110260009766,115.09110260009766,365
115.0,115.0,115.0,115.0,327
114.98999786376953,114.98999786376953,114.97000122070312,114.97000122070312,938
114.88999938964844,114.88999938964844,114.88999938964844,114.88999938964844,275
114.86000061035156,115.02999877929688,114.86000061035156,115.02999877929688,693
114.87999725341797,114.87999725341797,114.83999633789062,114.83999633789062,663
114.77999877929688,114.77999877929688,114.7699966430664,114.7699966430664,481
114.77649688720703,114.77649688720703,114.77649688720703,114.77649688720703,153
114.72000122070312,114.72000122070312,114.72000122070312,114.72000122070312,279
114.77999877929688,114.77999877929688,114.77999877929688,114.77999877929688,224
114.76000213623047,114.76000213623047,114.76000213623047,114.76000213623047,251
114.72000122070312,114.72000122070312,114.68000030517578,114.68000030517578,412
114.68000030517578,114.68000030517578,114.68000030517578,114.68000030517578,499
114.56999969482422,114.69000244140625,114.56999969482422,114.69000244140625,729
114.87999725341797,114.87999725341797,114.87999725341797,114.87999725341797,667
114.92500305175781,114.92500305175781,114.92500305175781,114.92500305175781,322
114.80000305175781,114.80000305175781,114.76000213623047,114.76000213623047,896
114.625,114.625,114.625,114.625,694
114.5999984741211,114.5999984741211,114.58000183105469,114.58000183105469,622
114.45999908447266,114.45999908447266,114.45999908447266,114.45999908447266,347
114.2750015258789,114.30000305175781,114.19000244140625,114.2750015258789,7789
114.19000244140625,114.19000244140625,114.19000244140625,114.19000244140625,275
114.12000274658203,114.12999725341797,114.0999984741211,114.12999725341797,1248
114.18000030517578,114.18000030517578,114.11000061035156,114.11000061035156,673
114.0250015258789,114.0250015258789,114.0250015258789,114.0250015258789,195
114.0999984741211,114.23999786376953,114.0999984741211,114.23999786376953,595
114.16999816894531,114.16999816894531,114.12000274658203,114.12000274658203,1068
113.58999633789062,113.58999633789062,113.58999633789062,113.58999633789062,514
113.52999877929688,113.52999877929688,113.44999694824219,113.44999694824219,788
113.37999725341797,113.37999725341797,113.37999725341797,113.37999725341797,142
113.33999633789062,113.37000274658203,113.33999633789062,113.37000274658203,433
113.23999786376953,113.23999786376953,113.23999786376953,113.23999786376953,992
112.97000122070312,113.22000122070312,112.97000122070312,113.19000244140625,754
113.31999969482422,113.33000183105469,113.30000305175781,113.33000183105469,802
113.26000213623047,113.38999938964844,113.26000213623047,113.38999938964844,351
113.31999969482422,113.31999969482422,113.31999969482422,113.31999969482422,349
113.29000091552734,113.29000091552734,113.29000091552734,113.29000091552734,331
113.44000244140625,113.44000244140625,113.44000244140625,113.44000244140625,296
113.37999725341797,113.37999725341797,113.37999725341797,113.37999725341797,116
113.58000183105469,113.58000183105469,113.58000183105469,113.58000183105469,163
113.37999725341797,113.37999725341797,113.37999725341797,113.37999725341797,134
113.3499984741211,113.3499984741211,113.33000183105469,113.33000183105469,641
113.0999984741211,113.0999984741211,113.08999633789062,113.08999633789062,494
113.2300033569336,113.2300033569336,113.08999633789062,113.13999938964844,2069
113.05999755859375,113.05999755859375,113.05999755859375,113.05999755859375,243
112.87000274658203,113.20999908447266,112.87000274658203,113.20999908447266,797
113.12000274658203,113.12000274658203,113.12000274658203,113.12000274658203,259
112.91000366210938,112.91000366210938,112.91000366210938,112.91000366210938,229
113.18000030517578,113.41999816894531,113.18000030517578,113.41999816894531,1450
113.41999816894531,113.41999816894531,113.3499984741211,113.3499984741211,658
113.41999816894531,113.41999816894531,113.41999816894531,113.41999816894531,464
113.51000213623047,113.51000213623047,113.51000213623047,113.51000213623047,374
113.33999633789062,113.33999633789062,113.19000244140625,113.30000305175781,844
113.48999786376953,113.5199966430664,113.48999786376953,113.5,604
113.86000061035156,113.87999725341797,113.86000061035156,113.87999725341797,736
113.94999694824219,113.94999694824219,113.94999694824219,113.94999694824219,337
113.91000366210938,113.97200012207031,113.91000366210938,113.97200012207031,443
114.1500015258789,114.1500015258789,114.1500015258789,114.1500015258789,341
113.97000122070312,114.04000091552734,113.79000091552734,113.79000091552734,1626
113.75,113.75,113.75,113.75,812
113.58999633789062,113.58999633789062,113.58999633789062,113.58999633789062,136
113.58999633789062,113.58999633789062,113.58999633789062,113.58999633789062,596
113.66000366210938,113.66000366210938,113.66000366210938,113.66000366210938,178
113.63999938964844,113.70999908447266,113.63999938964844,113.6500015258789,1462
113.94000244140625,113.94000244140625,113.94000244140625,113.94000244140625,643
114.05999755859375,114.05999755859375,114.05999755859375,114.05999755859375,100
114.04000091552734,114.04000091552734,114.04000091552734,114.04000091552734,219
114.05000305175781,114.05000305175781,114.05000305175781,114.05000305175781,399
114.06999969482422,114.1500015258789,114.06999969482422,114.1500015258789,412
114.01499938964844,114.08000183105469,114.01499938964844,114.08000183105469,301
113.94999694824219,113.94999694824219,113.83000183105469,113.83000183105469,1734
113.55000305175781,113.6449966430664,113.55000305175781,113.6449966430664,215
113.7300033569336,113.80000305175781,113.70999908447266,113.80000305175781,1240
113.7300033569336,113.7300033569336,113.54000091552734,113.54000091552734,1499
113.41999816894531,113.41999816894531,113.41999816894531,113.41999816894531,627
113.25,113.25,113.13999938964844,113.13999938964844,501
113.15499877929688,113.15499877929688,113.15499877929688,113.15499877929688,483
113.22000122070312,113.2300033569336,113.19999694824219,113.19999694824219,1423
113.30000305175781,113.33000183105469,113.30000305175781,113.31999969482422,1493
113.38999938964844,113.5,113.38999938964844,113.5,1056
113.55999755859375,113.55999755859375,113.55999755859375,113.55999755859375,100
113.80000305175781,113.80000305175781,113.68000030517578,113.68000030517578,314
113.51000213623047,113.51000213623047,113.48999786376953,113.48999786376953,442
113.76000213623047,113.76000213623047,113.76000213623047,113.76000213623047,211
113.7300033569336,113.7300033569336,113.58999633789062,113.58999633789062,264
113.61000061035156,113.7699966430664,113.61000061035156,113.7699966430664,849
113.7699966430664,113.93499755859375,113.7699966430664,113.84500122070312,669
113.91500091552734,113.91500091552734,113.91500091552734,113.91500091552734,198
113.80000305175781,113.80000305175781,113.66999816894531,113.66999816894531,1950
113.66999816894531,113.66999816894531,113.66999816894531,113.66999816894531,761
113.44000244140625,113.5,113.43000030517578,113.43000030517578,620
113.42500305175781,113.42500305175781,113.42500305175781,113.42500305175781,273
113.37000274658203,113.37000274658203,113.3550033569336,113.3550033569336,327
113.43000030517578,113.44999694824219,113.43000030517578,113.44999694824219,1127
113.45999908447266,113.45999908447266,113.3499984741211,113.3499984741211,1286
113.38500213623047,113.38500213623047,113.38500213623047,113.38500213623047,100
113.43000030517578,113.5,113.43000030517578,113.5,1139
113.5,113.5,113.37999725341797,113.4800033569336,2044
113.4000015258789,113.4000015258789,113.4000015258789,113.4000015258789,143
113.33999633789062,113.3499984741211,113.30000305175781,113.3499984741211,974
113.4000015258789,113.54000091552734,113.4000015258789,113.54000091552734,513
113.45999908447266,113.52999877929688,113.45999908447266,113.52999877929688,314
113.44999694824219,113.55999755859375,113.4000015258789,113.55999755859375,1566
113.3499984741211,113.3499984741211,113.3499984741211,113.3499984741211,120
113.41999816894531,113.5,113.38999938964844,113.43000030517578,1788
113.43000030517578,113.47000122070312,113.43000030517578,113.47000122070312,672
113.58000183105469,113.58000183105469,113.58000183105469,113.58000183105469,146
113.56999969482422,113.56999969482422,113.56999969482422,113.56999969482422,549
113.52999877929688,113.54000091552734,113.52999877929688,113.54000091552734,476
113.72000122070312,113.72000122070312,113.72000122070312,113.72000122070312,116
113.62999725341797,113.62999725341797,113.51000213623047,113.55999755859375,3401
113.45999908447266,113.51000213623047,113.37999725341797,113.38999938964844,1343
113.38999938964844,113.56999969482422,113.38999938964844,113.43000030517578,2935
113.44000244140625,113.61000061035156,113.44000244140625,113.61000061035156,618
113.5999984741211,113.5999984741211,113.5999984741211,113.5999984741211,109
113.55999755859375,113.7699966430664,113.55999755859375,113.7699966430664,1125
113.76000213623047,113.76000213623047,113.48999786376953,113.48999786376953,2146
113.5199966430664,113.58999633789062,113.5199966430664,113.58999633789062,920
113.55000305175781,113.55000305175781,113.44000244140625,113.44000244140625,831
113.44000244140625,113.44000244140625,113.31500244140625,113.31500244140625,1008
113.33000183105469,113.33999633789062,113.33000183105469,113.33999633789062,1163
113.29000091552734,113.30000305175781,113.29000091552734,113.30000305175781,996
113.37000274658203,113.5199966430664,113.37000274658203,113.5199966430664,2178
113.69999694824219,113.69999694824219,113.52649688720703,113.5999984741211,649
113.6050033569336,113.6050033569336,113.5,113.5,1547
113.58000183105469,113.58000183105469,113.58000183105469,113.58000183105469,3212
113.69000244140625,113.7699966430664,113.69000244140625,113.7699966430664,1213
113.83000183105469,113.9000015258789,113.83000183105469,113.9000015258789,1151
113.9000015258789,113.9800033569336,113.80000305175781,113.9800033569336,2434
113.97000122070312,113.97000122070312,113.79000091552734,113.79000091552734,3345
113.83999633789062,113.88999938964844,113.83999633789062,113.88999938964844,1289
113.9000015258789,113.91999816894531,113.77999877929688,113.91999816894531,3380
113.93000030517578,113.95999908447266,113.93000030517578,113.95999908447266,3359
113.91000366210938,113.91000366210938,113.68000030517578,113.75499725341797,4678
113.80000305175781,113.9800033569336,113.80000305175781,113.9800033569336,2742
113.99500274658203,114.05000305175781,113.98500061035156,113.98500061035156,2877
113.9000015258789,113.9000015258789,113.75,113.75,5703
113.73999786376953,113.77999877929688,113.66999816894531,113.77999877929688,5225
113.70999908447266,113.75,113.55999755859375,113.70999908447266,12300
113.71,113.71,113.71,113.71,25910
113.71,113.71,113.71,113.71,0
113.71,113.71,113.71,113.71,0
113.0,113.0,113.0,113.0,0
113.70999908447266,113.70999908447266,113.70999908447266,113.70999908447266,1318
112.4800033569336,112.50499725341797,112.4800033569336,112.50499725341797,322
113.62000274658203,113.69999694824219,113.62000274658203,113.69999694824219,532
113.0199966430664,113.0199966430664,113.0199966430664,113.0199966430664,251
114.47000122070312,114.47000122070312,114.47000122070312,114.47000122070312,348
113.68000030517578,113.69000244140625,113.68000030517578,113.69000244140625,999
113.27999877929688,113.37999725341797,113.0199966430664,113.0199966430664,933
113.31999969482422,113.31999969482422,113.08999633789062,113.08999633789062,508
113.5770034790039,113.5770034790039,113.5770034790039,113.5770034790039,909
113.43000030517578,113.43000030517578,113.25,113.26000213623047,416
113.16000366210938,113.16000366210938,113.16000366210938,113.16000366210938,224
112.95999908447266,113.05999755859375,112.95999908447266,113.05999755859375,419
112.91000366210938,112.92500305175781,112.91000366210938,112.92500305175781,282
112.87000274658203,112.87000274658203,112.87000274658203,112.87000274658203,232
113.04000091552734,113.04000091552734,113.04000091552734,113.04000091552734,431
113.13999938964844,113.13999938964844,113.13999938964844,113.13999938964844,503
113.31999969482422,113.52999877929688,113.27799987792969,113.27799987792969,757
113.23999786376953,113.23999786376953,113.1500015258789,113.1500015258789,628
112.80000305175781,112.80000305175781,112.5,112.5,1061
112.52999877929688,112.54499816894531,112.4375,112.4375,1329
112.69000244140625,112.69000244140625,112.69000244140625,112.69000244140625,127
112.83999633789062,112.87000274658203,112.83999633789062,112.86000061035156,962
112.90499877929688,112.91000366210938,112.87000274658203,112.91000366210938,1002
112.77999877929688,112.77999877929688,112.77999877929688,112.77999877929688,373
112.94000244140625,112.94000244140625,112.94000244140625,112.94000244140625,569
112.77999877929688,112.77999877929688,112.68000030517578,112.68000030517578,616
112.61000061035156,112.7947998046875,112.56999969482422,112.56999969482422,2972
112.95999908447266,112.95999908447266,112.95999908447266,112.95999908447266,775
113.06999969482422,113.06999969482422,113.06999969482422,113.06999969482422,407
112.98999786376953,113.0,112.94999694824219,112.94999694824219,1328
112.93000030517578,112.93000030517578,112.93000030517578,112.93000030517578,102
112.8499984741211,112.8499984741211,112.8499984741211,112.8499984741211,176
112.94000244140625,112.94000244140625,112.94000244140625,112.94000244140625,137
112.94000244140625,112.94000244140625,112.91999816894531,112.91999816894531,564
112.88999938964844,112.88999938964844,112.8550033569336,112.8550033569336,1209
112.55000305175781,112.55000305175781,112.55000305175781,112.55000305175781,234
112.83000183105469,112.83000183105469,112.76499938964844,112.83000183105469,1001
112.70999908447266,112.70999908447266,112.66999816894531,112.66999816894531,433
112.6500015258789,112.66000366210938,112.6500015258789,112.66000366210938,1033
112.69999694824219,112.8499984741211,112.69999694824219,112.8499984741211,1103
112.80000305175781,112.80000305175781,112.80000305175781,112.80000305175781,226
113.02999877929688,113.02999877929688,113.02999877929688,113.02999877929688,1123
112.80000305175781,112.83999633789062,112.80000305175781,112.83999633789062,518
112.7300033569336,112.7300033569336,112.7300033569336,112.7300033569336,636
112.94000244140625,112.94999694824219,112.94000244140625,112.94999694824219,331
112.79000091552734,112.93609619140625,112.79000091552734,112.79000091552734,845
112.91000366210938,112.91000366210938,112.79000091552734,112.79000091552734,568
112.87000274658203,113.05000305175781,112.87000274658203,113.05000305175781,369
113.04000091552734,113.04000091552734,113.04000091552734,113.04000091552734,333
113.05000305175781,113.05000305175781,113.05000305175781,113.05000305175781,583
113.22000122070312,113.22000122070312,113.22000122070312,113.22000122070312,312
113.04000091552734,113.04000091552734,113.04000091552734,113.04000091552734,243
113.26000213623047,113.26000213623047,113.05999755859375,113.05999755859375,1090
112.97709655761719,112.97709655761719,112.97709655761719,112.97709655761719,271
113.0999984741211,113.0999984741211,112.94000244140625,112.94000244140625,1212
113.16999816894531,113.16999816894531,113.16999816894531,113.16999816894531,462
113.04000091552734,113.04000091552734,113.04000091552734,113.04000091552734,229
112.98999786376953,112.98999786376953,112.98999786376953,112.98999786376953,525
112.94000244140625,112.94000244140625,112.9000015258789,112.9000015258789,629
113.11000061035156,113.12999725341797,113.11000061035156,113.12999725341797,983
113.30999755859375,113.30999755859375,113.30999755859375,113.30999755859375,316
113.48999786376953,113.48999786376953,113.48999786376953,113.48999786376953,475
113.37000274658203,113.38999938964844,113.37000274658203,113.38999938964844,811
113.42500305175781,113.42500305175781,113.42500305175781,113.42500305175781,152
113.4800033569336,113.68000030517578,113.4800033569336,113.68000030517578,446
113.66000366210938,113.66000366210938,113.66000366210938,113.66000366210938,1012
113.61000061035156,113.61000061035156,113.61000061035156,113.61000061035156,560
113.5,113.5,113.41999816894531,113.41999816894531,909
113.52999877929688,113.52999877929688,113.52999877929688,113.52999877929688,152
113.62999725341797,113.62999725341797,113.62999725341797,113.62999725341797,527
113.6500015258789,113.6500015258789,113.6500015258789,113.6500015258789,437
113.61000061035156,113.61000061035156,113.61000061035156,113.61000061035156,1011
113.6500015258789,113.6500015258789,113.6500015258789,113.6500015258789,202
113.76000213623047,113.76000213623047,113.76000213623047,113.76000213623047,465
113.68000030517578,113.68000030517578,113.68000030517578,113.68000030517578,208
113.69999694824219,113.69999694824219,113.69999694824219,113.69999694824219,115
113.6449966430664,113.6449966430664,113.6449966430664,113.6449966430664,495
113.62999725341797,113.6500015258789,113.62999725341797,113.6500015258789,617
113.69999694824219,113.69999694824219,113.69999694824219,113.69999694824219,187
113.68000030517578,113.68000030517578,113.68000030517578,113.68000030517578,106
113.62999725341797,113.62999725341797,113.62000274658203,113.62000274658203,612
113.6500015258789,113.6500015258789,113.6500015258789,113.6500015258789,162
113.72000122070312,113.72000122070312,113.72000122070312,113.72000122070312,219
113.76000213623047,113.76000213623047,113.76000213623047,113.76000213623047,1350
113.51000213623047,113.54000091552734,113.51000213623047,113.54000091552734,1197
113.50499725341797,113.50499725341797,113.50499725341797,113.50499725341797,142
113.45999908447266,113.45999908447266,113.4000015258789,113.4000015258789,1100
113.4000015258789,113.4000015258789,113.4000015258789,113.4000015258789,102
113.16999816894531,113.16999816894531,113.13999938964844,113.13999938964844,445
113.41000366210938,113.41000366210938,113.41000366210938,113.41000366210938,1214
113.04000091552734,113.04000091552734,112.9800033569336,112.9800033569336,645
113.1500015258789,113.18000030517578,113.1500015258789,113.18000030517578,543
113.23999786376953,113.23999786376953,113.23999786376953,113.23999786376953,353
113.3499984741211,113.4000015258789,113.3499984741211,113.4000015258789,517
113.25,113.25,113.1500015258789,113.1500015258789,1363
113.29000091552734,113.29000091552734,113.29000091552734,113.29000091552734,359
113.22000122070312,113.22000122070312,113.19000244140625,113.19000244140625,784
113.0999984741211,113.0999984741211,113.0999984741211,113.0999984741211,222
112.98999786376953,112.98999786376953,112.98999786376953,112.98999786376953,327
112.95999908447266,112.95999908447266,112.80999755859375,112.80999755859375,1053
112.66000366210938,113.0,112.66000366210938,113.0,1135
112.8550033569336,112.8550033569336,112.8550033569336,112.8550033569336,162
112.7300033569336,112.7300033569336,112.69999694824219,112.69999694824219,360
112.6500015258789,112.6500015258789,112.6500015258789,112.6500015258789,295
112.87999725341797,112.94000244140625,112.80000305175781,112.94000244140625,598
112.95999908447266,112.95999908447266,112.95999908447266,112.95999908447266,318
112.80999755859375,112.81999969482422,112.80999755859375,112.80999755859375,784
112.62000274658203,112.62000274658203,112.62000274658203,112.62000274658203,418
112.83999633789062,112.83999633789062,112.83999633789062,112.83999633789062,411
112.72000122070312,112.72000122070312,112.56999969482422,112.56999969482422,864
112.56999969482422,112.56999969482422,112.56999969482422,112.56999969482422,721
112.72000122070312,112.77999877929688,112.72000122070312,112.77999877929688,366
112.7249984741211,112.8499984741211,112.7249984741211,112.8499984741211,1111
112.76170349121094,112.94000244140625,112.76170349121094,112.94000244140625,785
112.94000244140625,112.94000244140625,112.94000244140625,112.94000244140625,709
113.13999938964844,113.13999938964844,113.13999938964844,113.13999938964844,100
113.13999938964844,113.25,113.13999938964844,113.25,718
113.23999786376953,113.23999786376953,113.11000061035156,113.12000274658203,2208
113.0999984741211,113.0999984741211,113.0999984741211,113.0999984741211,1168
113.2300033569336,113.2300033569336,113.2300033569336,113.2300033569336,176
113.19999694824219,113.20500183105469,113.19999694824219,113.20500183105469,464
113.26000213623047,113.30000305175781,113.26000213623047,113.30000305175781,692
113.37999725341797,113.37999725341797,113.31999969482422,113.31999969482422,318
113.38999938964844,113.38999938964844,113.38999938964844,113.38999938964844,442
113.25,113.25,113.25,113.25,946
113.37000274658203,113.56999969482422,113.37000274658203,113.55999755859375,1437
113.62999725341797,113.75,113.62999725341797,113.66999816894531,1993
113.38999938964844,113.38999938964844,113.37000274658203,113.38999938964844,802
113.6500015258789,113.66000366210938,113.56500244140625,113.56500244140625,951
113.81999969482422,113.81999969482422,113.81999969482422,113.81999969482422,228
113.81999969482422,113.81999969482422,113.68000030517578,113.68000030517578,1276
113.70999908447266,113.79000091552734,113.70999908447266,113.70999908447266,1685
113.94999694824219,113.94999694824219,113.94999694824219,113.94999694824219,163
113.81999969482422,113.81999969482422,113.81999969482422,113.81999969482422,910
113.83000183105469,113.83000183105469,113.83000183105469,113.83000183105469,628
113.83000183105469,113.83000183105469,113.79000091552734,113.80000305175781,1349
113.73999786376953,113.73999786376953,113.69999694824219,113.69999694824219,1170
113.72000122070312,113.72000122070312,113.72000122070312,113.72000122070312,514
113.87999725341797,113.95999908447266,113.83999633789062,113.95999908447266,1119
114.08999633789062,114.08999633789062,114.08999633789062,114.08999633789062,236
114.06999969482422,114.06999969482422,114.06999969482422,114.06999969482422,574
114.08000183105469,114.08499908447266,113.98999786376953,113.98999786376953,1045
113.91999816894531,113.93000030517578,113.91999816894531,113.93000030517578,617
114.0199966430664,114.0199966430664,114.0199966430664,114.0199966430664,178
114.0199966430664,114.0199966430664,113.91999816894531,113.91999816894531,1265
114.04000091552734,114.04000091552734,113.9000015258789,113.9000015258789,520
114.03500366210938,114.11000061035156,114.03500366210938,114.11000061035156,1225
113.95999908447266,114.02999877929688,113.9000015258789,113.9000015258789,958
114.0,114.0,114.0,114.0,239
114.06999969482422,114.06999969482422,114.0199966430664,114.05500030517578,1309
114.02999877929688,114.12000274658203,114.02999877929688,114.12000274658203,707
114.04000091552734,114.04000091552734,113.93000030517578,113.93000030517578,1255
113.94499969482422,114.12000274658203,113.94499969482422,114.08999633789062,1623
114.08000183105469,114.11000061035156,114.06999969482422,114.11000061035156,1157
114.19999694824219,114.22000122070312,114.19999694824219,114.19999694824219,903
114.2249984741211,114.2249984741211,114.2249984741211,114.2249984741211,175
114.16000366210938,114.16000366210938,114.16000366210938,114.16000366210938,428
114.02999877929688,114.02999877929688,113.98999786376953,113.99500274658203,549
114.0,114.0,113.95999908447266,113.95999908447266,914
113.96900177001953,113.96900177001953,113.96900177001953,113.96900177001953,100
113.97000122070312,113.97000122070312,113.97000122070312,113.97000122070312,845
114.08999633789062,114.11000061035156,114.08999633789062,114.11000061035156,979
114.08999633789062,114.08999633789062,114.08999633789062,114.08999633789062,297
114.08999633789062,114.13999938964844,114.08999633789062,114.13999938964844,560
114.16000366210938,114.16999816894531,114.16000366210938,114.16999816894531,436
114.16000366210938,114.16000366210938,114.08999633789062,114.08999633789062,436
114.12000274658203,114.18000030517578,114.12000274658203,114.18000030517578,918
114.16000366210938,114.16000366210938,114.0999984741211,114.12650299072266,1187
114.12999725341797,114.16899871826172,114.12999725341797,114.16899871826172,399
114.16999816894531,114.16999816894531,114.11000061035156,114.12000274658203,1461
114.22000122070312,114.3499984741211,114.22000122070312,114.33000183105469,1689
114.37000274658203,114.37000274658203,114.31999969482422,114.33999633789062,1122
114.37999725341797,114.51000213623047,114.37999725341797,114.51000213623047,519
114.4800033569336,114.4800033569336,114.47000122070312,114.47000122070312,379
114.47000122070312,114.47000122070312,114.38999938964844,114.38999938964844,987
114.38999938964844,114.43000030517578,114.38999938964844,114.43000030517578,883
114.33999633789062,114.33999633789062,114.33999633789062,114.33999633789062,263
114.36000061035156,114.36000061035156,114.23999786376953,114.23999786376953,1287
114.19999694824219,114.2699966430664,114.19999694824219,114.23999786376953,824
114.2699966430664,114.2699966430664,114.19000244140625,114.19999694824219,1188
114.25,114.25,114.11000061035156,114.11000061035156,678
114.0999984741211,114.0999984741211,114.06999969482422,114.08999633789062,1810
114.12000274658203,114.22000122070312,114.12000274658203,114.22000122070312,1692
114.22000122070312,114.22000122070312,114.0999984741211,114.1500015258789,4364
114.02999877929688,114.06999969482422,114.01000213623047,114.05999755859375,4186
114.12999725341797,114.22000122070312,114.12999725341797,114.22000122070312,1413
114.30000305175781,114.36000061035156,114.30000305175781,114.36000061035156,852
114.45999908447266,114.45999908447266,114.31999969482422,114.3550033569336,1659
114.05000305175781,114.06999969482422,113.83000183105469,113.90499877929688,6226
113.94000244140625,114.01000213623047,113.87000274658203,113.97000122070312,5462
114.05000305175781,114.0999984741211,114.04499816894531,114.0999984741211,1109
114.04000091552734,114.04000091552734,113.88999938964844,113.9000015258789,3476
113.9000015258789,114.01000213623047,113.88500213623047,114.01000213623047,3315
114.04000091552734,114.18000030517578,113.91000366210938,114.0999984741211,6914
114.0999984741211,114.1500015258789,114.02999877929688,114.09500122070312,6598
114.0999984741211,114.22000122070312,114.0999984741211,114.18499755859375,5629
114.18499755859375,114.22000122070312,114.05999755859375,114.13999938964844,8790
114.12000274658203,114.26000213623047,114.02999877929688,114.02999877929688,15505
114.1,114.1,114.1,114.1,56471
114.1,114.1,114.1,114.1,0
114.25,114.50499725341797,114.25,114.50499725341797,1524
114.15499877929688,114.15499877929688,114.15499877929688,114.15499877929688,222
114.19999694824219,114.19999694824219,114.19999694824219,114.19999694824219,159
114.25,114.25,114.05000305175781,114.05000305175781,1110
114.05000305175781,114.05000305175781,114.05000305175781,114.05000305175781,1597
114.05000305175781,114.05000305175781,114.05000305175781,114.05000305175781,121
114.00520324707031,114.00520324707031,114.00520324707031,114.00520324707031,282
113.83999633789062,113.83999633789062,113.58999633789062,113.58999633789062,943
113.53009796142578,113.53009796142578,113.53009796142578,113.53009796142578,304
113.31999969482422,113.31999969482422,113.30999755859375,113.30999755859375,796
113.19999694824219,113.19999694824219,113.19000244140625,113.19000244140625,1021
113.41999816894531,113.41999816894531,113.41999816894531,113.41999816894531,368
113.61000061035156,113.61000061035156,113.61000061035156,113.61000061035156,147
113.45999908447266,113.45999908447266,113.33000183105469,113.33000183105469,783
113.19000244140625,113.19000244140625,113.19000244140625,113.19000244140625,574
113.29000091552734,113.36000061035156,113.29000091552734,113.36000061035156,554
113.44000244140625,113.44000244140625,113.19039916992188,113.19039916992188,1136
113.26000213623047,113.26000213623047,113.25,113.25,347
113.20999908447266,113.20999908447266,113.20500183105469,113.20500183105469,211
113.2925033569336,113.2925033569336,113.2925033569336,113.2925033569336,228
113.30999755859375,113.30999755859375,113.30999755859375,113.30999755859375,778
113.28500366210938,113.28500366210938,113.28500366210938,113.28500366210938,1915
113.28500366210938,113.28500366210938,113.28500366210938,113.28500366210938,689
113.0999984741211,113.3499984741211,113.0999984741211,113.2300033569336,2697
113.26000213623047,113.33000183105469,113.25499725341797,113.25499725341797,1317
113.25,113.54000091552734,113.25,113.44999694824219,1799
113.45059967041016,113.4800033569336,113.45059967041016,113.4800033569336,1004
113.45999908447266,113.62999725341797,113.4219970703125,113.43000030517578,1018
113.31999969482422,113.31999969482422,113.30999755859375,113.31999969482422,431
113.30000305175781,113.30000305175781,113.30000305175781,113.30000305175781,651
113.26000213623047,113.26000213623047,113.26000213623047,113.26000213623047,146
113.30000305175781,113.45999908447266,113.30000305175781,113.44999694824219,814
113.44999694824219,113.55000305175781,113.44999694824219,113.55000305175781,360
113.47000122070312,113.47000122070312,113.47000122070312,113.47000122070312,223
113.4800033569336,113.51499938964844,113.4800033569336,113.51499938964844,304
113.44999694824219,113.5,113.43499755859375,113.5,8764
113.56999969482422,113.56999969482422,113.48999786376953,113.48999786376953,2427
113.5,113.62000274658203,113.5,113.56999969482422,4059
113.61000061035156,113.61000061035156,113.61000061035156,113.61000061035156,313
113.70500183105469,113.70500183105469,113.69999694824219,113.69999694824219,362
113.93000030517578,113.94999694824219,113.91000366210938,113.91000366210938,1595
113.94000244140625,114.0,113.94000244140625,114.0,521
113.91999816894531,113.91999816894531,113.91999816894531,113.91999816894531,310
113.91999816894531,113.91999816894531,113.91999816894531,113.91999816894531,787
113.87999725341797,113.91000366210938,113.77999877929688,113.77999877929688,2325
113.95999908447266,114.08999633789062,113.95999908447266,113.98999786376953,1959
113.9800033569336,114.05500030517578,113.94999694824219,113.94999694824219,1088
113.91999816894531,113.91999816894531,113.90499877929688,113.90499877929688,462
114.0199966430664,114.19999694824219,113.9800033569336,114.01000213623047,3665
113.95999908447266,113.95999908447266,113.95999908447266,113.95999908447266,477
114.05999755859375,114.08000183105469,114.05500030517578,114.08000183105469,535
114.13999938964844,114.2300033569336,114.13999938964844,114.2300033569336,707
114.13999938964844,114.13999938964844,114.11000061035156,114.11000061035156,541
113.9800033569336,113.9800033569336,113.9800033569336,113.9800033569336,550
113.95999908447266,113.97000122070312,113.95999908447266,113.95999908447266,355
113.94999694824219,113.94999694824219,113.94999694824219,113.94999694824219,292
113.94000244140625,113.94000244140625,113.83000183105469,113.83000183105469,680
113.80000305175781,113.80000305175781,113.80000305175781,113.80000305175781,510
113.91999816894531,113.91999816894531,113.91999816894531,113.91999816894531,792
113.91000366210938,113.91000366210938,113.91000366210938,113.91000366210938,195
114.00399780273438,114.18000030517578,114.00399780273438,114.18000030517578,1048
114.0199966430664,114.04000091552734,114.0,114.04000091552734,1786
114.01499938964844,114.01499938964844,114.01499938964844,114.01499938964844,163
114.12999725341797,114.13999938964844,114.08999633789062,114.08999633789062,401
114.1500015258789,114.1500015258789,114.1500015258789,114.1500015258789,231
114.13500213623047,114.13500213623047,114.13500213623047,114.13500213623047,376
114.19999694824219,114.19999694824219,114.19999694824219,114.19999694824219,792
114.33830261230469,114.33830261230469,114.25499725341797,114.25499725341797,1307
114.30000305175781,114.30000305175781,114.30000305175781,114.30000305175781,563
114.22000122070312,114.22000122070312,114.22000122070312,114.22000122070312,545
114.16000366210938,114.20999908447266,114.16000366210938,114.20999908447266,527
114.25,114.25,114.25,114.25,797
114.20999908447266,114.20999908447266,114.16999816894531,114.16999816894531,792
114.18000030517578,114.18000030517578,114.16999816894531,114.16999816894531,887
114.1500015258789,114.1500015258789,114.1500015258789,114.1500015258789,298
114.0999984741211,114.0999984741211,114.08000183105469,114.08000183105469,294
114.06999969482422,114.06999969482422,114.05000305175781,114.05000305175781,567
113.98999786376953,113.98999786376953,113.9800033569336,113.9800033569336,1391
114.02999877929688,114.06999969482422,114.02999877929688,114.05000305175781,1436
114.0999984741211,114.0999984741211,114.0999984741211,114.0999984741211,105
114.08999633789062,114.08999633789062,114.08999633789062,114.08999633789062,119
114.07499694824219,114.07499694824219,114.07499694824219,114.07499694824219,390
114.13999938964844,114.13999938964844,114.13999938964844,114.13999938964844,374
114.22000122070312,114.2300033569336,114.22000122070312,114.2300033569336,632
114.3499984741211,114.41999816894531,114.19999694824219,114.41999816894531,518
114.27999877929688,114.27999877929688,114.27999877929688,114.27999877929688,409
114.2699966430664,114.34500122070312,114.2699966430664,114.34500122070312,1732
114.20999908447266,114.20999908447266,114.16999816894531,114.16999816894531,562
114.29000091552734,114.31999969482422,114.29000091552734,114.31999969482422,750
114.32499694824219,114.32499694824219,114.32499694824219,114.32499694824219,626
114.2699966430664,114.2699966430664,114.2699966430664,114.2699966430664,386
114.23999786376953,114.27999877929688,114.18000030517578,114.27999877929688,633
114.25499725341797,114.25499725341797,114.25499725341797,114.25499725341797,1079
114.12000274658203,114.12000274658203,114.12000274658203,114.12000274658203,112
114.11000061035156,114.11000061035156,114.11000061035156,114.11000061035156,220
114.11499786376953,114.16999816894531,114.11499786376953,114.13999938964844,390
114.16000366210938,114.2300033569336,114.16000366210938,114.2300033569336,932
114.25,114.25,114.25,114.25,423
114.18000030517578,114.18000030517578,114.16999816894531,114.16999816894531,350
114.20999908447266,114.20999908447266,114.20999908447266,114.20999908447266,817
114.0999984741211,114.0999984741211,114.0999984741211,114.0999984741211,592
114.20999908447266,114.20999908447266,114.0999984741211,114.0999984741211,383
114.08999633789062,114.08999633789062,114.08000183105469,114.08000183105469,669
114.0,114.01499938964844,114.0,114.01499938964844,945
114.05000305175781,114.0999984741211,114.05000305175781,114.0999984741211,1496
114.13999938964844,114.15499877929688,114.13999938964844,114.15499877929688,438
114.13999938964844,114.13999938964844,114.13999938964844,114.13999938964844,101
114.19000244140625,114.19999694824219,113.99500274658203,113.99500274658203,2216
114.06999969482422,114.08000183105469,113.98639678955078,113.98639678955078,946
113.95939636230469,113.95939636230469,113.95939636230469,113.95939636230469,191
114.02999877929688,114.02999877929688,114.02999877929688,114.02999877929688,392
114.08000183105469,114.2300033569336,114.08000183105469,114.08000183105469,3050
114.04000091552734,114.0999984741211,114.04000091552734,114.05000305175781,1536
113.94000244140625,113.94000244140625,113.63999938964844,113.63999938964844,784
113.66000366210938,113.66000366210938,113.66000366210938,113.66000366210938,389
114.01000213623047,114.01000213623047,113.91000366210938,113.98999786376953,1055
113.87000274658203,113.87000274658203,113.87000274658203,113.87000274658203,238
114.12000274658203,114.16000366210938,114.05999755859375,114.05999755859375,777
114.12000274658203,114.12000274658203,114.12000274658203,114.12000274658203,102
113.97000122070312,113.97000122070312,113.91000366210938,113.91000366210938,647
113.83000183105469,113.98999786376953,113.83000183105469,113.86000061035156,309
113.91999816894531,114.08999633789062,113.875,114.08999633789062,943
114.0999984741211,114.0999984741211,113.9800033569336,113.9800033569336,5988
114.05500030517578,114.12999725341797,114.05500030517578,114.08000183105469,698
114.16000366210938,114.16000366210938,114.16000366210938,114.16000366210938,236
114.27999877929688,114.27999877929688,114.18199920654297,114.18199920654297,315
114.2300033569336,114.2300033569336,114.2300033569336,114.2300033569336,169
114.3499984741211,114.44999694824219,114.30500030517578,114.3499984741211,3076
114.45999908447266,114.55000305175781,114.30000305175781,114.30999755859375,1840
114.37999725341797,114.47000122070312,114.26000213623047,114.47000122070312,505
114.4000015258789,114.44999694824219,114.4000015258789,114.44999694824219,1862
114.45999908447266,114.45999908447266,114.41000366210938,114.44999694824219,860
114.45999908447266,114.55999755859375,114.45999908447266,114.51000213623047,2928
114.55999755859375,114.55999755859375,114.55999755859375,114.55999755859375,440
114.51000213623047,114.5250015258789,114.51000213623047,114.5250015258789,541
114.51000213623047,114.55999755859375,114.51000213623047,114.55999755859375,1290
114.52999877929688,114.8550033569336,114.52999877929688,114.8550033569336,1844
114.91999816894531,114.93000030517578,114.91999816894531,114.93000030517578,669
115.0,115.0,115.0,115.0,700
115.01499938964844,115.01499938964844,114.87999725341797,114.88500213623047,1035
114.88500213623047,114.88500213623047,114.76000213623047,114.78500366210938,1425
114.83000183105469,114.83000183105469,114.77999877929688,114.78500366210938,1659
114.63999938964844,114.63999938964844,114.56500244140625,114.56500244140625,678
114.47000122070312,114.47000122070312,114.47000122070312,114.47000122070312,221
114.5,114.5,114.5,114.5,278
114.70999908447266,114.70999908447266,114.70999908447266,114.70999908447266,146
114.72000122070312,114.72000122070312,114.72000122070312,114.72000122070312,132
114.61499786376953,114.61499786376953,114.61499786376953,114.61499786376953,248
114.67500305175781,114.67500305175781,114.67500305175781,114.67500305175781,611
114.75,114.75,114.75,114.75,479
114.66999816894531,114.66999816894531,114.5999984741211,114.61000061035156,625
114.61000061035156,114.61000061035156,114.61000061035156,114.61000061035156,100
114.66999816894531,114.68000030517578,114.66000366210938,114.68000030517578,1456
114.68499755859375,114.68499755859375,114.68499755859375,114.68499755859375,252
114.72000122070312,114.72000122070312,114.72000122070312,114.72000122070312,130
114.72000122070312,114.72000122070312,114.72000122070312,114.72000122070312,212
114.7249984741211,114.7249984741211,114.7249984741211,114.7249984741211,340
114.66999816894531,114.70500183105469,114.66999816894531,114.70500183105469,1308
114.70500183105469,114.70500183105469,114.69000244140625,114.69000244140625,685
114.7249984741211,114.7249984741211,114.7249984741211,114.7249984741211,187
114.66999816894531,114.7249984741211,114.66999816894531,114.69999694824219,1054
114.70500183105469,114.7699966430664,114.70500183105469,114.71499633789062,1983
114.77999877929688,114.87000274658203,114.77999877929688,114.87000274658203,1360
115.0199966430664,115.0199966430664,115.0199966430664,115.0199966430664,607
114.9000015258789,114.95999908447266,114.87999725341797,114.95999908447266,719
114.94999694824219,114.95999908447266,114.94999694824219,114.95999908447266,828
114.87999725341797,114.87999725341797,114.87999725341797,114.87999725341797,972
114.80999755859375,114.81999969482422,114.80999755859375,114.81999969482422,588
114.9000015258789,114.92500305175781,114.9000015258789,114.92500305175781,502
114.86000061035156,114.86000061035156,114.86000061035156,114.86000061035156,584
114.96749877929688,114.99500274658203,114.96749877929688,114.99500274658203,325
114.94999694824219,115.01000213623047,114.94999694824219,115.01000213623047,986
115.06500244140625,115.06500244140625,115.01000213623047,115.01000213623047,368
114.95999908447266,115.0,114.94000244140625,115.0,914
115.05000305175781,115.05000305175781,115.05000305175781,115.05000305175781,173
115.00499725341797,115.00499725341797,115.00499725341797,115.00499725341797,229
114.98999786376953,114.98999786376953,114.98999786376953,114.98999786376953,400
114.95999908447266,114.95999908447266,114.95999908447266,114.95999908447266,536
115.02999877929688,115.02999877929688,115.02999877929688,115.02999877929688,397
115.0,115.0,114.96499633789062,114.96499633789062,287
114.88999938964844,114.88999938964844,114.83000183105469,114.83000183105469,1600
114.83000183105469,114.83000183105469,114.81999969482422,114.83000183105469,1351
114.83000183105469,114.83000183105469,114.77999877929688,114.78500366210938,1214
114.81999969482422,114.83499908447266,114.80999755859375,114.80999755859375,754
114.79000091552734,114.87999725341797,114.79000091552734,114.87999725341797,1808
114.9000015258789,114.9000015258789,114.81999969482422,114.81999969482422,1616
114.91000366210938,114.95999908447266,114.86000061035156,114.91000366210938,1721
114.87999725341797,114.87999725341797,114.87999725341797,114.87999725341797,684
114.87999725341797,114.87999725341797,114.79000091552734,114.87999725341797,1336
114.8499984741211,114.875,114.8499984741211,114.86499786376953,901
114.88999938964844,114.88999938964844,114.88999938964844,114.88999938964844,104
114.90499877929688,114.90499877929688,114.90499877929688,114.90499877929688,561
114.95999908447266,115.00499725341797,114.95999908447266,115.00499725341797,1665
115.00499725341797,115.00499725341797,114.97000122070312,114.97000122070312,1110
114.8949966430664,114.94999694824219,114.86000061035156,114.86000061035156,1331
115.01000213623047,115.01000213623047,114.91999816894531,114.95999908447266,7506
115.0,115.0,114.93000030517578,114.95999908447266,2596
114.91000366210938,114.95999908447266,114.87999725341797,114.95999908447266,2157
115.01000213623047,115.04000091552734,114.99500274658203,115.04000091552734,614
115.0199966430664,115.07599639892578,114.91500091552734,114.91500091552734,4059
114.93000030517578,114.94999694824219,114.9000015258789,114.94999694824219,2179
115.0,115.04000091552734,114.98999786376953,114.98999786376953,2912
115.0199966430664,115.0199966430664,114.95500183105469,114.95500183105469,3190
114.95500183105469,114.95500183105469,114.79000091552734,114.83999633789062,3006
114.87000274658203,114.91000366210938,114.73999786376953,114.79000091552734,6001
114.83000183105469,114.83000183105469,114.75,114.75499725341797,3585
114.75499725341797,114.75499725341797,114.68000030517578,114.69999694824219,6342
114.76000213623047,114.7699966430664,114.72000122070312,114.7699966430664,3966
114.76000213623047,114.80000305175781,114.5999984741211,114.66999816894531,14501
114.82,114.82,114.7,114.7,33191
114.7,114.7,114.7,114.7,0
114.7,114.7,114.7,114.7,0
