Date,Open,High,Low,Close,Volume
1993-05-01,3.1326643746832143,3.2860115818355395,2.80406321649966,3.0231306552886963,731600.0
1993-06-01,3.0450367473420643,3.2421974000476657,3.0450367473420643,3.2202906608581543,1286800.0
1993-07-01,3.2202915905306,3.329825318099668,3.132664608475346,3.2641050815582275,1335600.0
1993-08-01,3.286010143803615,3.351730346679687,3.2202899409275427,3.3517303466796875,310400.0
1993-08-03,,,,,
1993-09-01,3.338728734425136,3.690173864364624,3.2069368106978278,3.690173864364624,1108400.0
1993-10-01,3.6901719132824056,3.8658943853434726,3.6682066042747725,3.712137222290039,1311600.0
1993-11-01,3.712137796158014,3.8219643581745233,3.4705193597216937,3.77803373336792,815600.0
1993-11-03,,,,,
1993-12-01,3.74301659055503,3.8090698245060013,3.5448568887021166,3.6549456119537354,1009200.0
1994-01-01,3.610910095854434,3.6989810738021025,3.5448568623936816,3.6769633293151855,428400.0
1994-02-01,3.7209974210814565,3.897139310836792,3.6109087399843722,3.897139310836792,387600.0
1994-02-03,,,,,
1994-03-01,3.906440228746648,4.016791647637796,3.751948242299041,3.7740185260772705,1332800.0
1994-04-01,3.7519505436859983,4.0167941114755985,3.7519505436859983,3.9505832195281982,871600.0
1994-05-01,3.906439685821533,4.325775019327799,3.884369405110677,4.303704738616943,1053600.0
1994-05-04,,,,,
1994-06-01,4.271083313030201,4.536642897260058,4.005523728800344,4.027653694152832,786000.0
1994-07-01,4.049783339867226,4.381732793954702,4.0276533762613935,4.315342903137207,336800.0
1994-08-01,4.3153440318209055,4.33747400121486,3.9170045827297453,4.160434246063232,599600.0
1994-08-02,,,,,
1994-09-01,4.17069927851359,4.814051826794942,4.081960995992024,4.791867256164551,4209600.0
1994-10-01,4.791867807370807,4.924975246464441,4.725314087823991,4.836236953735352,3044400.0
1994-11-01,4.83623698614176,5.058082719451015,4.481283812846952,4.570022106170654,2950000.0
1994-11-02,,,,,
1994-12-01,4.580013163193413,5.158073076994523,4.424381647939267,5.113606929779053,1635200.0
1995-01-01,5.069141434234323,5.0913745107002635,4.513314522585823,4.580013751983643,1322400.0
1995-02-01,4.580016295115153,5.180309693018596,4.379918495814006,5.069144248962402,1899200.0
1995-02-02,,,,,
1995-03-01,5.1033830642700195,5.237096157657007,4.702243784109057,5.1033830642700195,1622000.0
1995-04-01,5.081099025273727,5.393096333843166,4.969671415070356,5.259383201599121,1712400.0
1995-05-01,5.259382271375812,5.705092633356813,5.259382271375812,5.437666416168213,1605600.0
1995-05-04,,,,,
1995-06-01,5.448563520082704,5.738855838775635,5.448563520082704,5.738855838775635,1783200.0
1995-07-01,5.738857679797295,5.939829349517822,5.537886010076767,5.939829349517822,1518400.0
1995-08-01,5.895165270707738,5.962155785147599,5.604873041468342,5.671863555908203,2123600.0
1995-08-04,,,,,
1995-09-01,5.684058218182258,6.131621857409208,5.66168003622091,5.93021821975708,1203200.0
1995-10-01,5.9078413970279,6.17637964234735,5.572168590378587,6.131623268127441,2134000.0
1995-11-01,6.109248499075572,6.444921493530273,6.086870299445258,6.444921493530273,2959200.0
1995-11-03,,,,,
1995-12-01,6.457832566073108,6.861447101452677,6.3008713578699425,6.704485893249512,2252400.0
1996-01-01,6.659639121702053,6.726908203739447,6.233601602131888,6.682062149047852,2070800.0
1996-02-01,6.637216084623989,6.794177275814421,6.502677920746477,6.5475239753723145,2028800.0
1996-02-05,,,,,
1996-03-01,6.7170253230864745,7.525764157973141,6.604700484907771,7.458369255065918,3866800.0
1996-04-01,7.4583692582342715,7.750413837622963,6.582235520068197,6.761955261230469,5590000.0
1996-05-01,6.761960270130529,7.61562967300415,6.717030301558233,7.61562967300415,4727200.0
1996-05-06,,,,,
1996-06-01,7.60703618861427,7.629542212840939,5.22139762058731,5.446457862854004,5982400.0
1996-07-01,5.468965503506194,6.34670070777262,5.468965503506194,5.9866042137146,3462400.0
1996-08-01,6.1891557063375195,6.684288162844521,6.099131623336247,6.301685810089111,2152400.0
1996-08-02,,,,,
1996-09-01,6.314687394910285,6.35979230487393,5.705771110401079,5.795980930328369,2472800.0
1996-10-01,5.818532943725586,6.066609929698382,5.502798597942027,5.818532943725586,2470800.0
1996-11-01,5.773427769757699,6.517658693203028,5.773427769757699,6.2244768142700195,2722800.0
1996-12-01,6.260617738074445,6.441429802711974,5.921595116879078,6.3736252784729,2855200.0
1997-01-01,6.351022855559392,6.5092333893277745,5.92159426390235,6.05720329284668,3402800.0
1997-02-01,6.328423218157306,7.187280654907227,6.283220195170468,7.187280654907227,3474800.0
1997-02-03,,,,,
1997-03-01,7.179682086495792,7.360872801612405,6.79465181687299,6.930544853210449,2501600.0
1997-04-01,6.953195145726204,7.338225495815276,6.364325198531151,7.2476301193237305,4032800.0
1997-05-01,7.24762822540713,8.040337562561035,7.111735196180747,8.040337562561035,2140400.0
1997-05-05,,,,,
1997-06-01,8.077034534011757,8.326605825793019,7.759398344471968,8.213164329528809,2476800.0
1997-07-01,8.16778412615052,9.449672468171366,8.077030969193293,9.23413372039795,2964800.0
1997-08-01,9.20010213745965,10.209731101989746,9.188757991790773,10.209731101989746,2976000.0
1997-09-01,10.225816438983939,10.748469279198673,9.839507817955656,10.16900634765625,2946000.0
1997-10-01,10.169007352323392,10.54395399212973,9.725888596188629,9.987215042114258,2604000.0
1997-10-31,,,,,
1997-11-01,9.979132978539718,10.479796434703626,9.182622934642591,10.377388000488281,1801200.0
1997-12-01,10.377392639984956,10.764269119984395,9.54674607998616,10.104303359985352,2596000.0
1998-01-01,10.115680619782092,10.115680619782092,8.727476980171952,9.2850341796875,4271200.0
1998-02-01,9.307787175039042,10.695990152245352,9.2850297491832,10.502552032470703,2996400.0
1998-02-02,,,,,
1998-03-01,10.51905594407954,11.601732341357499,10.51905594407954,10.952126502990723,3210000.0
1998-04-01,10.952129629135133,11.533356071472168,10.211350830078125,11.396596908569336,3645200.0
1998-05-01,11.373802497738698,12.012011856329245,11.077491009821657,11.818269729614258,3518400.0
1998-05-04,,,,,
1998-06-01,11.833536753822212,12.016117841634319,10.680993637008283,11.35426139831543,2972000.0
1998-07-01,11.365673045821602,12.210110601434852,10.954865586334073,11.240148544311523,8667200.0
1998-07-31,,,,,
1998-08-01,11.266245528989952,11.54047462908707,10.055067003561012,10.375000953674316,3160600.0
1998-08-26,,,,,
1998-09-01,10.146474838256836,10.717785358428955,7.952642440795898,8.318281173706055,4834000.0
1998-10-01,8.318280362637244,10.969160917763398,7.1985118522822304,9.780835151672363,5198000.0
1998-10-30,,,,,
1998-11-01,9.886824332627674,10.66495402547337,9.795279662881121,10.230116844177246,3573200.0
1998-12-01,10.207232787508211,11.031134985603044,9.154468867720368,10.275891304016113,3532600.0
1999-01-01,10.11568876480347,10.527639890971937,8.788290691593964,10.00125789642334,2821800.0
1999-02-01,10.0012560957643,10.596296504207942,8.467882735544144,10.024142265319824,2675000.0
1999-03-01,10.130524933338165,10.863956602720114,9.122056387937986,9.534611701965332,2590800.0
1999-04-01,9.580451318195887,11.001475197928292,8.732420938355583,10.268043518066406,3017800.0
1999-05-01,10.038847745548594,11.551550830494273,9.35125543420965,10.084687232971191,3059400.0
1999-05-03,,,,,
1999-06-01,10.145021239916485,11.200837930043539,10.00730601946513,11.017217636108398,3086800.0
1999-07-01,11.109022943813908,11.33854821124808,9.777776392695714,10.627019882202148,3316800.0
1999-07-30,,,,,
1999-08-01,10.600004471621467,10.668984977944383,9.128420336732587,9.473322868347168,3348800.0
1999-09-01,9.473322912911389,9.979179961659085,8.277660797689563,9.841218948364258,3740400.0
1999-10-01,9.795229233142942,10.002170695814977,8.78351541563522,9.887203216552734,3050000.0
1999-10-29,,,,,
1999-11-01,9.860413775466004,10.781947773173107,9.606991926096551,9.99864387512207,2916000.0
1999-12-01,9.929531633557373,10.413337119183138,9.10015080105606,9.261419296264648,3838800.0
2000-01-01,9.26141426780007,10.55156152898615,8.1094970703125,8.1094970703125,3934600.0
2000-02-01,8.15557632247088,9.583954096462957,7.925192810536675,8.823688507080078,5440600.0
2000-02-07,,,,,
2000-03-01,8.84280563238354,10.205013288547061,7.43442144550261,9.858689308166504,5578800.0
2000-04-01,9.927948504163508,10.528243064880371,8.635006373388725,10.528243064880371,2969400.0
2000-05-01,10.343541475183823,10.343541475183823,9.512364035213695,9.812511444091797,2655000.0
2000-06-01,9.829759156262432,10.847428339499013,9.806630311188874,9.991661071777344,3970800.0
2000-07-01,10.084173962585908,11.101842894589991,8.650185922034701,9.22840690612793,4467600.0
2000-07-28,,,,,
2000-08-01,9.2471817441025,9.7106996260124,8.250618297996215,8.644608497619629,3931000.0
2000-09-01,8.66778545031037,9.409414151941204,8.111563924087246,8.876368522644043,3792000.0
2000-10-01,8.969071935670973,9.108127314518585,7.184527907126619,7.671221733093262,5963000.0
2000-10-30,,,,,
2000-11-01,7.7133817386627195,9.36293024301529,7.388118653297425,9.293231010437012,6366600.0
2000-12-01,9.29323561648105,11.198348917859667,9.29323561648105,10.919551849365234,3662200.0
2001-01-01,10.919548383894965,11.274549843419196,9.827593545505469,11.122140884399414,4395600.0
2001-02-01,11.122140065494843,11.237375943557943,10.490200007050742,10.668630599975586,2994600.0
2001-02-05,,,,,
2001-03-01,10.65000641119987,11.767139935935777,10.616492348637443,11.346352577209473,5218000.0
2001-04-01,11.346354401533738,12.213994883505412,10.892053617454597,11.75969409942627,3289600.0
2001-04-30,,,,,
2001-05-01,11.778155874963009,13.877934464311341,11.56183765060011,12.29284381866455,4474000.0
2001-06-01,12.345055104546184,13.426646654111769,11.867663678787475,12.095170974731445,3361600.0
2001-07-01,12.177226787405909,12.718021300563784,11.375356804240834,12.30776309967041,2936000.0
2001-07-27,,,,,
2001-08-01,12.329765461674285,13.824282487331773,12.23635814757069,13.372191429138184,2908400.0
2001-09-01,13.37219309878528,13.712195707563659,10.648435137369292,11.8814115524292,2664000.0
2001-10-01,11.881413946133955,12.979885230632672,10.125356295524016,11.246244430541992,5238600.0
2001-10-29,,,,,
2001-11-01,11.306230925021412,12.410647779729347,11.231354939794654,12.279614448547363,3601000.0
2001-12-01,12.279616924788042,13.140687358182946,12.144840409829706,13.114480972290039,3721400.0
2002-01-01,13.114482788293655,13.260490223669652,11.137764103558084,12.010066986083984,8971000.0
2002-02-01,12.010069572769464,13.118230199663099,11.733028701975341,12.953502655029297,3827200.0
2002-02-04,,,,,
2002-03-01,13.052886253416341,13.199168373634366,12.422746788763396,13.14665699005127,4492800.0
2002-04-01,13.127900299322802,14.253148896407613,12.962864353514957,13.93432903289795,3521600.0
2002-04-29,,,,,
2002-05-01,13.953586328443702,14.554711003447254,13.269808103435194,14.043755531311035,3223400.0
2002-06-01,14.043753814051822,14.051268032804506,11.552846908569336,11.552846908569336,4193800.0
2002-07-01,11.691861560534257,12.247900345572134,9.993686169128125,11.241018295288086,4405200.0
2002-07-26,,,,,
2002-08-01,11.22003443243339,12.161312512944184,10.768221384671119,12.086009979248047,2074000.0
2002-09-01,12.048361046675097,12.104838313592012,9.902246447980783,10.11685848236084,2780200.0
2002-10-01,10.15450486850261,10.579962845504022,9.352536481458527,10.515955924987793,3922000.0
2002-10-28,,,,,
2002-11-01,10.508392620186477,11.45169535593602,10.425381518843478,11.274353981018066,2096200.0
2002-12-01,11.349821215889548,12.455371683393796,11.23285185005207,11.787513732910156,4202000.0
2003-01-01,11.7912845706936,11.881841549834581,10.474433996200487,10.821569442749023,1958200.0
2003-02-01,10.798929166637455,11.451694434530639,10.002781491424507,11.432827949523926,3119600.0
2003-02-03,,,,,
2003-03-01,11.441458460812475,12.480903795844322,11.131514876262449,12.227656364440918,3504600.0
2003-04-01,12.189861154487932,13.119692077895348,11.585092704960998,13.010077476501465,3287000.0
2003-04-29,,,,,
2003-05-01,12.950232315132391,13.378120502909796,12.83663407748245,13.253161430358887,3182400.0
2003-06-01,13.294816660202034,13.821156356069777,12.874501811133491,13.63182544708252,2479800.0
2003-07-01,13.631822112422663,14.370212765741526,13.309960223671288,14.105149269104004,2917200.0
2003-07-25,,,,,
2003-08-01,14.093771168966589,14.87148904129456,13.505739205967695,14.856313705444336,2008800.0
2003-09-01,14.79561121090598,15.061173752849305,13.547468276811946,13.919255256652832,2789800.0
2003-10-01,13.942023699606436,15.099116533535135,13.505742106997259,13.58161735534668,3255400.0
2003-10-27,,,,,
2003-11-01,13.608062817393533,14.132619845974189,13.113915564391073,13.26976203918457,2975800.0
2003-12-01,13.30397177965213,15.00687999344546,13.265961011717408,14.82442569732666,5721600.0
2004-01-01,14.82062315790712,15.607457835857788,14.558343965245129,15.231144905090332,3627200.0
2004-02-01,15.242551629240017,15.964767899959682,14.885245441104546,15.375592231750488,2326200.0
2004-02-02,,,,,
2004-03-01,15.478645443399687,15.63857170416115,13.978377336451862,14.621893882751465,3365200.0
2004-04-01,14.621901583511015,16.213556548423867,14.526706915526061,14.964601516723633,3434800.0
2004-04-28,,,,,
2004-05-01,14.914553360216212,15.608785677948886,14.34238377163857,15.505796432495117,3606800.0
2004-06-01,15.391355662061775,16.859924603023696,15.295994099211077,16.665386199951172,6339000.0
2004-07-01,16.760746705098256,17.11167799089598,15.84909045459288,16.13899040222168,5294800.0
2004-07-23,,,,,
2004-08-01,16.11859698116041,17.492754302061613,15.659268356260053,17.393232345581055,3979400.0
2004-09-01,17.33965092995389,17.952089818309112,16.58558762027705,16.830562591552734,3326400.0
2004-10-01,16.922423401954184,18.376963038875974,16.88031806512109,17.959739685058594,4733200.0
2004-10-26,,,,,
2004-11-01,18.048221331134094,20.379129798625666,17.894618861520183,20.179447174072266,3841800.0
2004-12-01,19.83384084350533,21.078015094518747,19.29623374525512,20.267765045166016,4145600.0
2005-01-01,20.333046511147327,21.078015004821925,18.15573938384707,18.620386123657227,3896000.0
2005-01-31,,,,,
2005-02-01,18.64850329991995,20.02373881529873,18.54064215188959,19.885059356689453,3668800.0
2005-03-01,19.885053719741187,20.551484067364616,18.99904811473017,20.023733139038086,4678000.0
2005-04-01,20.06995345866327,21.13701261213728,18.1053328250234,18.579153060913086,6276800.0
2005-04-27,,,,,
2005-05-01,18.664449694498035,20.329952905381795,18.618078802925883,19.32137680053711,4601800.0
2005-06-01,19.352293024521785,19.85464856061224,18.529201904202584,19.63051986694336,7115400.0
2005-07-01,19.630516993448964,20.132872456005156,19.03155465447412,19.263410568237305,3712000.0
2005-07-29,,,,,
2005-08-01,19.38225555385744,19.68098145302586,18.54427177071029,19.293025970458984,3715000.0
2005-09-01,19.293027103964192,19.78573077336341,18.276584094302002,19.324064254760742,3529600.0
2005-10-01,19.417174583407792,20.52284876619821,18.46668320940889,19.85944366455078,6250000.0
2005-10-31,,,,,
2005-11-01,20.058745261533844,21.38301253330921,19.579672494747015,21.363536834716797,3304600.0
2005-12-01,21.289549974378232,21.608932055071044,20.253505337689496,20.331403732299805,4312200.0
2006-01-01,20.397617174695082,21.98284339904785,20.14055350279432,21.98284339904785,2810600.0
2006-01-30,,,,,
2006-02-01,21.989124975668272,22.458226606729124,20.503637720003056,20.738187789916992,3454200.0
2006-03-01,20.808551536885624,21.633388223358306,20.51536322602943,21.59820556640625,3688800.0
2006-04-01,21.598197375392196,21.629471499148067,19.94461610822407,20.487991333007812,3419200.0
2006-04-26,,,,,
2006-05-01,20.566372219485416,21.464998652395494,19.77762248161962,20.64093017578125,3843000.0
2006-06-01,20.601694860516336,20.8371422030043,19.467620849609375,19.467620849609375,8668800.0
2006-07-01,19.7619254705547,20.37408899544632,18.388479515259693,20.20927619934082,7340600.0
2006-07-28,,,,,
2006-08-01,20.238848916271326,20.790638988457836,19.65552879900652,20.297969818115234,5299400.0
2006-09-01,20.37679494591016,20.5896283649416,19.27321642636811,20.053604125976562,5946400.0
2006-10-01,19.93142765539799,22.367184620718984,19.46634774917118,21.64197540283203,6750400.0
2006-10-30,,,,,
2006-11-01,21.756373414101525,24.245416881410492,21.273601454402137,24.241458892822266,7861800.0
2006-12-01,24.17420204821066,24.649059812637695,22.888129753883508,23.362987518310547,6423800.0
2007-01-01,23.545008051756334,24.534294104351137,22.733793790534737,24.142536163330078,6425800.0
2007-01-29,,,,,
2007-02-01,24.345096697810618,27.935302347186564,23.947949927813724,26.128286361694336,11248400.0
2007-03-01,25.814542163946143,27.228383811328662,25.61596876268502,26.581035614013672,8502400.0
2007-04-01,26.688255290644253,30.572352308986762,26.481740353283122,29.090993881225586,7268600.0
2007-04-30,,,,,
2007-05-01,29.32264775473958,30.534130138564038,28.68502624757386,29.936359405517578,7990900.0
2007-05-10,,,,,
2007-06-01,30.135610351885155,30.52615211754205,27.895962020806834,28.34229850769043,6683500.0
2007-07-01,28.58139769159336,31.418812757724112,27.88798483492202,29.01179313659668,9757100.0
2007-07-27,,,,,
2007-08-01,28.99722482887939,32.068930974190344,27.869332895525055,29.061220169067383,11396900.0
2007-09-01,28.877235476903135,30.57307539691358,26.69344481304728,30.293100357055664,7422300.0
2007-10-01,30.229102749217066,35.796568278770216,30.197105084325717,35.75657272338867,9084000.0
2007-10-29,,,,,
2007-11-01,35.48451696372946,35.661017916224985,31.954519336808808,33.86392593383789,8201200.0
2007-12-01,33.743583248895774,35.30801221251172,31.842195175471065,32.82096862792969,6335200.0
2008-01-01,32.636449953718135,34.27308680931512,26.370699780519338,30.245677947998047,12292800.0
2008-01-29,,,,,
2008-02-01,30.448139221189756,32.259570046162835,27.26807115867611,30.17441177368164,16040300.0
2008-03-01,30.021435576693833,32.00998119692547,27.783310966085825,31.341766357421875,11510800.0
2008-04-01,31.696006963191593,36.566741612611985,31.382026173115268,35.54429244995117,10250700.0
2008-04-28,,,,,
2008-05-01,35.65545894045724,37.05228701695987,34.30707688997683,36.10761260986328,8124600.0
2008-06-01,36.244866541579995,37.29450564810849,32.894095429198856,33.87106704711914,14313000.0
2008-07-01,33.459289256963984,35.23560355069297,29.502956095523718,31.246973037719727,12912200.0
2008-07-28,,,,,
2008-08-01,31.647773212052197,33.325818277485546,30.55339397869306,32.742149353027344,6298800.0
2008-09-01,33.06641737011653,35.6929218868376,30.520976624110016,31.704524993896484,8527900.0
2008-10-01,31.631564873817947,32.22333903084545,19.2448317287279,24.578908920288086,15168900.0
2008-10-27,,,,,
2008-11-01,24.707255400356114,27.25868034362793,22.693830624736236,27.25868034362793,8517300.0
2008-12-01,26.48428811023875,28.929743949761676,23.843194435348515,28.725955963134766,11516000.0
2009-01-01,28.84823044587923,29.410687348428066,23.672016191238452,25.12298583984375,10527600.0
2009-01-27,,,,,
2009-02-01,24.887243679688204,25.33780368242499,21.503955386394104,22.986703872680664,11269500.0
2009-03-01,22.62625580009946,26.632133082304083,20.438996463499503,25.50983238220215,9144200.0
2009-04-01,25.15757119463127,27.484093765829204,23.43725655131269,25.419715881347656,8746200.0
2009-04-27,,,,,
2009-05-01,25.34044912005962,26.287216701975172,24.706525891108924,25.529802322387695,5934900.0
2009-06-01,25.974374679920707,28.205453390047897,25.974374679920707,27.80204963684082,5937200.0
2009-07-01,27.900839846305466,30.041360612514346,26.460105983502615,28.74881362915039,4797100.0
2009-07-27,,,,,
2009-08-01,29.216127709236556,29.93536935584372,28.356342778999515,28.422481536865234,2849600.0
2009-09-01,28.364606113521088,31.489589272741,27.76110425838263,30.88608741760254,3809600.0
2009-10-01,30.67941344636031,32.208835896622006,28.968112572556574,29.191326141357422,4982500.0
2009-10-26,,,,,
2009-11-01,29.368388141988028,30.962148734276674,28.6545150225801,29.982648849487305,3594900.0
2009-12-01,30.132050859343114,30.787818029202842,29.667205810546875,29.667205810546875,3349500.0
2010-01-01,29.791723734392743,30.721417223636703,29.451389312744137,29.45138931274414,2960200.0
2010-02-01,29.393293334850803,32.082768628580396,28.60471239122642,31.983156204223633,4548500.0
2010-03-01,32.143934519521046,34.05289495098933,31.96053969118491,32.80248260498047,4160700.0
2010-04-01,32.39403273057715,36.97888031729371,32.20230312218295,35.878517150878906,4544800.0
2010-04-26,,,,,
2010-05-01,36.212538632412276,36.906840655893824,31.235300749898297,33.34330749511719,5158700.0
2010-06-01,33.226198726139714,34.39731153425353,31.2938582848555,31.63682746887207,4049200.0
2010-07-01,31.62845332936705,36.655878468697104,30.87559283680626,36.02849578857422,3599500.0
2010-07-30,,,,,
2010-08-01,36.776412655535694,37.00322052508265,33.86151863828741,34.98715591430664,2979000.0
2010-09-01,35.54995762911721,39.10327297841003,35.222347471334544,38.36404800415039,3135400.0
2010-10-01,38.71686424140584,39.993706315072146,37.29721904327537,37.70043182373047,3396800.0
2010-11-01,37.82643100630704,39.41408220445383,37.41481939428014,38.36404800415039,2662600.0
2010-12-01,39.176410237069824,40.86323088695568,39.10050317913076,40.121028900146484,3362500.0
2011-01-01,40.29815226174164,41.445191045169906,39.42944048489039,40.53430938720703,2853600.0
2011-01-31,,,,,
2011-02-01,40.83140233537782,42.38067751156429,39.74775842821804,40.78060531616211,3277100.0
2011-03-01,40.81447589571861,42.49073901799206,39.36679454868891,42.439945220947266,3819800.0
2011-04-01,42.67699621169204,44.65803525056597,41.35630244260462,44.404056549072266,2375700.0
2011-04-25,,,,,
2011-05-01,44.63665197947413,45.7071145906839,43.3537924692212,45.367286682128906,4213000.0
2011-06-01,45.29932246652325,45.43525428805361,42.419264769750455,44.466739654541016,4205700.0
2011-07-01,44.67062830553035,46.43774156207775,40.44824204694075,43.37077713012695,4272300.0
2011-07-29,,,,,
2011-08-01,43.96734843376647,44.0782702733548,38.36157562889435,43.071449279785156,6542300.0
2011-09-01,43.21650994089972,43.489545865397965,38.10561242293613,38.11414337158203,5159700.0
2011-10-01,37.84110115747232,42.53390980520074,35.81892816062579,40.92982482910156,3875600.0
2011-11-01,40.45200780954378,43.370083055192964,39.23187737928017,43.33595275878906,4773700.0
2011-11-07,,,,,
2011-12-01,43.30951257359562,45.31513831036575,41.826721385453,44.71516418457031,4380600.0
2012-01-01,45.58085274237272,45.803698645702205,43.72093284204428,44.92945098876953,3964000.0
2012-01-30,,,,,
2012-02-01,45.403347942607525,46.32432554341487,44.02618609562816,45.429168701171875,4037700.0
2012-03-01,45.6271397242393,47.33998800776758,44.72337697350091,47.14202117919922,5147700.0
2012-04-01,47.133417567579045,47.761751280192684,44.783632828215275,46.918235778808594,4850700.0
2012-04-24,,,,,
2012-05-01,47.01418557876044,47.86977274758975,42.891801747109426,43.79059982299805,7173200.0
2012-06-01,42.83130061920953,46.02895350841475,42.65845371517075,44.11900329589844,4285500.0
2012-07-01,44.136285816746394,45.57955359244705,41.102835844919,43.22019958496094,5701100.0
2012-08-01,43.31526683700923,44.19678305695069,41.55223769390671,43.773311614990234,3940600.0
2012-08-07,,,,,
2012-09-01,44.02760084853082,46.17168715119721,43.46336569388632,44.88697052001953,4869200.0
2012-10-01,44.886968838111514,46.058841043535026,43.376560188484284,44.51370620727539,3350300.0
2012-11-01,44.60920209279345,46.319265988904284,39.227277782727185,41.38004684448242,7235500.0
2012-11-05,,,,,
2012-12-01,41.86999532299981,42.33211623509506,40.64057661300831,41.60841751098633,5466200.0
2013-01-01,42.68088146944621,45.68031295776571,41.97461850591839,44.93045425415039,5057000.0
2013-01-28,,,,,
2013-02-01,45.567930397692045,47.30268636899904,45.051008906529034,47.25887680053711,4319300.0
2013-03-01,47.01356175467163,50.3516485112492,46.409027778904466,50.24650955200195,4044500.0
2013-04-01,50.30782285547476,50.5443804248447,47.66189006222571,49.15132141113281,4465000.0
2013-04-24,,,,,
2013-05-01,49.291902335858566,50.620787893018004,48.67586623083894,49.916744232177734,4279100.0
2013-06-01,49.90795502435995,50.83201278392317,47.63741319678021,48.58787155151367,3483100.0
2013-07-01,48.834288583454196,52.90014467050603,48.719880411090415,51.38644790649414,3977500.0
2013-07-29,,,,,
2013-08-01,52.25434779708547,53.68621837356609,51.644479243787565,51.980350494384766,3082200.0
2013-09-01,52.537184666367494,53.69505454610971,50.734094039158,53.147056579589844,3961900.0
2013-10-01,53.01447958250669,57.03608417561292,52.31622203455699,56.70905685424805,4377700.0
2013-11-01,56.93886365131744,57.67247685268429,55.745641340974025,57.38079833984375,4736100.0
2013-11-04,,,,,
2013-12-01,57.64168363557566,60.21497447383485,55.991228459237924,60.17060470581055,3699600.0
2014-01-01,60.12625146753326,61.031336661210645,55.76053028744073,56.61237716674805,9510200.0
2014-01-27,,,,,
2014-02-01,56.88617423562651,59.451661614114,54.498843154282156,58.94390869140625,4547300.0
2014-03-01,58.373800724244404,59.12207212829287,56.21807825364244,58.881553649902344,3618800.0
2014-04-01,59.01516743930037,60.37808267163441,57.49190883867842,60.057395935058594,4567800.0
2014-04-28,,,,,
2014-05-01,60.51466148392843,60.68461671634913,58.44830259517431,59.56645965576172,3739800.0
2014-06-01,59.682763513340994,60.45205626079098,58.09944899778146,59.942176818847656,3594700.0
2014-07-01,60.16579063361846,60.82773763223296,54.46766040147588,54.65550994873047,5485100.0
2014-07-28,,,,,
2014-08-01,54.870623411249255,57.85360120542798,54.37645604324481,57.63796615600586,4417300.0
2014-09-01,57.844623645083416,58.734131218891214,54.42138841259292,54.53819274902344,5679800.0
2014-10-01,54.26864271547255,56.32617634701011,49.946916897697186,55.92185974121094,10128400.0
2014-11-01,55.46362486242792,59.183365448169724,55.11321533700362,58.62630081176758,5017100.0
2014-11-03,,,,,
2014-12-01,58.50312815316925,61.97793462002268,57.22151236720517,60.326271057128906,4567000.0
2015-01-01,60.52485825511904,61.08444041618121,55.407413459772165,56.95979690551758,5877800.0
2015-01-26,,,,,
2015-02-01,57.31982670112106,60.37482838002454,56.84843121892424,59.71306610107422,7049400.0
2015-03-01,59.71304317109098,60.3385432208784,56.72149593444583,57.582698822021484,6886700.0
2015-04-01,57.63710229576043,57.87279826026755,56.18665415266158,56.26824188232422,6282400.0
2015-04-27,,,,,
2015-05-01,58.50330548271353,60.37905126425523,56.80056433462945,58.06623840332031,9765700.0
2015-06-01,58.29387425076434,59.94198765836239,57.64738288642268,58.06623840332031,7275300.0
2015-07-01,58.40314158203027,62.564387945399105,55.29814149194214,61.72667694091797,7555300.0
2015-07-27,,,,,
2015-08-01,61.998699238269744,64.3403416334366,59.14482431382135,61.614524841308594,5652900.0
2015-09-01,60.43454906086418,63.46221987621375,58.19352148418904,60.33393096923828,6371600.0
2015-10-01,60.324771770091154,68.83152821465525,60.17842264796432,67.28567504882812,6407700.0
2015-11-01,68.39248607763808,69.48098720188923,64.55072807703219,68.12722778320312,5136600.0
2015-11-02,,,,,
2015-12-01,68.60825275840429,69.1409557550712,65.29264573763557,66.72543334960938,4314700.0
2016-01-01,66.12844069726177,66.96423407509636,60.920827674085615,66.95504760742188,7320400.0
2016-01-25,,,,,
2016-02-01,66.68792291772908,70.28569574720727,64.46468130181047,67.99787902832031,7163000.0
2016-03-01,68.30230492745788,72.91483221560475,68.03477750016638,72.33365631103516,6594700.0
2016-04-01,71.98311315861065,74.13255296494677,69.84290037925605,70.11042785644531,5570700.0
2016-04-25,,,,,
2016-05-01,70.1716660068473,72.20885245343294,68.67156362987205,71.5421371459961,6470200.0
2016-06-01,71.17174399421614,74.20899655169293,68.77342109752341,73.27374267578125,5286300.0
2016-07-01,73.14410952188676,75.46835152869431,71.40324702380177,72.39405822753906,3987400.0
2016-07-25,,,,,
2016-08-01,72.62782025445382,73.53869187221791,69.71862036075265,72.47911071777344,4855000.0
2016-09-01,72.60923199289066,74.86781429829159,71.54035430921222,71.9493179321289,5757100.0
2016-10-01,71.63330350358163,72.59064378459694,65.8799581639041,66.40045928955078,4460900.0
2016-10-31,,,,,
2016-11-01,67.03812863594186,72.14464107069087,65.64714309277765,68.31709289550781,6387200.0
2016-12-01,68.33576564455339,70.57628406882321,67.06613877488088,68.56915283203125,6899600.0
2017-01-01,69.32531885514244,69.75475034297945,66.69271217063881,68.12104034423828,6274300.0
2017-01-30,,,,,
2017-02-01,68.71920624948606,71.44771784805737,67.92221866966328,69.86312103271484,7160000.0
2017-03-01,70.5194808808184,73.0135917660259,70.2475660521135,72.18846893310547,6220400.0
2017-04-01,72.14157879942881,75.50768219794156,70.78200489537579,75.29203033447266,5513400.0
2017-05-01,75.08573855830797,79.8676709174444,73.96995171819668,79.7082748413086,7082900.0
2017-06-01,80.25312916285533,82.78545893855706,79.88598932249297,81.76876068115234,5377100.0
2017-07-01,82.098241017563,85.46840334131853,75.9604097888562,76.18634033203125,7234600.0
2017-07-24,,,,,
2017-08-01,76.52582086024822,79.19950250416755,76.47857981603484,78.99165344238281,5254100.0
2017-09-01,79.17117531546593,82.6762466429167,77.77292232057168,81.54252624511719,4443200.0
2017-10-01,82.01489572970586,84.72636886211804,81.14571526639986,82.26053619384766,5099200.0
2017-10-31,,,,,
2017-11-01,83.28681483369937,84.30146659957727,79.86354890957656,83.8368148803711,4825000.0
2017-12-01,83.7609562675175,84.5480245980028,80.66009948972561,81.8169937133789,5252800.0
2018-01-01,81.96870691860629,84.87041950499872,80.75491883631788,82.89801025390625,5608900.0
2018-01-30,,,,,
2018-02-01,83.03019232274039,87.86505636859927,76.11101265469313,85.10499572753906,6834200.0
2018-03-01,84.93366056026456,87.65564987958935,82.50671691595996,85.49519348144531,5537200.0
2018-04-01,85.05740382276876,91.73864664422113,82.6590037505923,88.98810577392578,7154200.0
2018-05-01,88.94053537772018,90.3681523645936,86.45648123966158,87.86506652832031,6629100.0
2018-05-08,,,,,
2018-06-01,88.70390051415397,91.08194967518787,87.3095463219756,89.1814193725586,7158000.0
2018-07-01,88.732553269699,99.4194198245156,88.30278194709767,97.82450866699219,5293900.0
2018-07-31,,,,,
2018-08-01,98.12132400612654,101.35050738371713,95.87909466991329,100.33480072021484,5225000.0
2018-09-01,100.91933856607113,107.61726833281931,100.21026056409316,103.23822021484375,5893500.0
2018-10-01,103.53526271463295,104.63720548955078,94.99755291463467,97.69972229003906,7155400.0
2018-10-30,,,,,
2018-11-01,98.73437133302824,103.02257072227795,91.39827514584314,100.04198455810547,6456500.0
2018-12-01,101.17653000962137,101.44574319970458,86.21589823512252,90.4464111328125,5408200.0
2019-01-01,89.15803171962487,95.45572047719567,84.86021551996211,95.30188751220703,6097800.0
2019-01-29,,,,,
2019-02-01,95.83671612485232,100.34247753198507,95.05519759238591,98.15231323242188,5254900.0
2019-03-01,98.61541163536035,102.92820895791866,95.7209175784572,102.64840698242188,4277500.0
2019-04-01,103.15012835114779,107.87779631512653,102.47474195552269,107.32784271240234,3847700.0
2019-04-30,,,,,
2019-05-01,108.67306000009769,111.81893561745596,107.72446164182679,109.64102172851562,4387100.0
2019-06-01,109.77653255120764,120.75321394543406,109.77653255120764,120.3563461303711,6593800.0
2019-07-01,120.99522182518801,122.15677300072491,116.09733760889233,117.14273071289062,5472700.0
2019-07-30,,,,,
2019-08-01,116.67551688971211,120.37410600251441,111.48195074601301,118.64615631103516,5841200.0
2019-09-01,117.27738076498227,119.60720361470567,112.4818368178487,114.98638916015625,4582700.0
2019-10-01,115.80182441153212,116.22896067667855,110.45294106012062,114.69515991210938,3873000.0
2019-10-29,,,,,
2019-11-01,110.68326452191053,112.52360327233252,105.18171949233647,109.17399597167969,6357800.0
2019-12-01,109.56347930630093,113.14678582347327,108.2197421482095,112.58203125,4976300.0
2020-01-01,112.46518285480695,115.89268992070107,109.77770108051416,112.47492218017578,4914800.0
2020-01-28,,,,,
2020-02-01,112.92126646119466,116.18358472483276,97.01012102114643,98.71942138671875,6985600.0
2020-03-01,99.25662568921503,105.12684571515689,77.98315702963167,97.2249984741211,11954800.0
2020-04-01,95.43756051676127,111.99335933770969,91.18872982889235,104.58964538574219,8389200.0
2020-04-28,,,,,
2020-05-01,108.33513824981456,111.04940021106862,97.11555585347475,109.1484375,5628200.0
2020-06-01,109.0406521165675,111.98028151931837,100.99586721480964,109.72657012939453,6565900.0
2020-07-01,109.65796541614182,118.02610282816755,108.71727754567796,112.88175201416016,6558700.0
2020-07-28,,,,,
2020-08-01,114.8435215928547,118.59792658357794,112.87786437261452,116.3570785522461,4060600.0
2020-09-01,115.91480010527353,120.33752852375795,109.25122382116551,111.25618743896484,4737700.0
2020-10-01,111.50191065534233,116.92712916359707,108.44531286317418,112.13092041015625,3554900.0
2020-10-27,,,,,
2020-11-01,113.54034799703818,127.29295313069115,113.04742297401924,124.53257751464844,3975200.0
2020-12-01,125.35086876619886,135.416399556462,123.37916814076574,134.9530487060547,4209500.0
2021-01-01,133.99674043137054,139.33019294910358,129.95476414831504,131.08848571777344,4044500.0
2021-01-26,,,,,
2021-02-01,132.57404189187454,143.08071928263976,125.30929886942887,128.56114196777344,4640900.0
2021-03-01,129.26288073036642,144.20747580392236,127.96807984526058,140.02655029296875,6556900.0
2021-04-01,140.3428555509162,151.29432421998712,139.73993123066424,149.06053161621094,4327100.0
2021-04-27,,,,,
2021-05-01,150.77450255916736,157.5224913184618,145.08676299496142,145.96865844726562,3710900.0
2021-06-01,146.63254118257615,147.45498530467106,138.45766282277685,139.55755615234375,4786600.0
2021-07-01,139.82512296627036,140.64756721251422,127.01284926783542,127.7461166381836,4924500.0
2021-08-01,127.27048168663623,134.98954256343802,125.16978279527974,133.57257080078125,4280900.0
2021-08-03,,,,,
2021-09-01,134.27251161069952,135.37563180289862,118.14311109007963,118.61019897460938,4964500.0
2021-10-01,119.09715816515522,128.98547923074037,117.87478666831241,120.03133392333984,4757900.0
2021-10-26,,,,,
2021-11-01,119.59192393376662,135.3707154779286,118.93405507606892,119.20317840576172,5663300.0
2021-12-01,120.279681208666,123.10052916776375,112.00653279908757,122.08383178710938,8566300.0
2022-01-01,122.04395923123461,123.73845738631084,112.08626731015691,116.92058563232422,7169200.0
2022-02-01,116.71126060943736,121.12693177083396,112.0763074412882,118.05690002441406,3874800.0
2022-02-02,,,,,
2022-02-18,116.27999877929688,121.5199966430664,114.41999816894531,118.44000244140625,443817.0
