Open,High,Low,Close,Volume
120.61000061035156,120.7699966430664,119.55000305175781,119.55000305175781,3139
119.30500030517578,119.56999969482422,119.26000213623047,119.56999969482422,1461
119.31999969482422,119.36499786376953,118.9000015258789,119.26499938964844,2634
119.19000244140625,119.19000244140625,118.83000183105469,119.04000091552734,2819
119.20999908447266,119.6989974975586,119.11499786376953,119.6780014038086,6719
119.5999984741211,119.95980072021484,119.47000122070312,119.70999908447266,5629
119.58000183105469,119.7300033569336,119.31500244140625,119.7300033569336,4740
119.79499816894531,120.25,119.79499816894531,120.11000061035156,5964
119.95999908447266,120.19999694824219,119.81999969482422,120.1500015258789,8539
120.08999633789062,120.0999984741211,119.86000061035156,119.8949966430664,2077
119.87999725341797,120.12000274658203,119.67500305175781,120.12000274658203,9524
120.06999969482422,120.16999816894531,119.94999694824219,120.05000305175781,5133
120.1449966430664,120.56999969482422,120.08000183105469,120.44999694824219,7987
120.31999969482422,120.31999969482422,120.05000305175781,120.12000274658203,4489
120.08000183105469,120.5,120.02999877929688,120.5,3270
120.41999816894531,120.5,120.27999877929688,120.36499786376953,4469
120.44499969482422,121.04000091552734,120.44499969482422,120.87000274658203,7692
121.02999877929688,121.22000122070312,120.97000122070312,121.20999908447266,4595
121.06999969482422,121.06999969482422,120.87000274658203,120.95999908447266,7072
120.91999816894531,121.2699966430664,120.91000366210938,121.16000366210938,7334
121.12999725341797,121.4000015258789,120.77999877929688,120.875,10448
120.80999755859375,120.91999816894531,120.52999877929688,120.5999984741211,5396
120.51499938964844,120.73999786376953,120.37000274658203,120.73829650878906,10312
120.66999816894531,120.73999786376953,120.51000213623047,120.73999786376953,8373
120.63999938964844,120.6500015258789,120.27999877929688,120.27999877929688,17005
120.21499633789062,120.56999969482422,120.16999816894531,120.33000183105469,41719
120.37,120.37,120.37,120.37,0
120.76000213623047,120.76000213623047,120.58999633789062,120.58999633789062,1339
120.81999969482422,121.25,120.79000091552734,120.93000030517578,3807
120.94999694824219,121.5999984741211,120.76000213623047,121.28500366210938,8993
121.12999725341797,121.4800033569336,120.75,120.75,22353
120.71089935302734,120.88999938964844,120.66000366210938,120.80500030517578,5940
120.80500030517578,120.9000015258789,120.5,120.88999938964844,11060
120.97000122070312,121.30000305175781,120.7699966430664,121.05999755859375,5963
121.08000183105469,121.13999938964844,120.77999877929688,121.13999938964844,11914
121.13999938964844,121.20999908447266,120.95999908447266,121.18000030517578,2903
121.13999938964844,121.66000366210938,121.13999938964844,121.66000366210938,3302
121.7300033569336,121.7854995727539,121.5199966430664,121.7854995727539,4444
121.79000091552734,121.79000091552734,121.58000183105469,121.76000213623047,2812
121.81999969482422,121.85310363769531,121.36000061035156,121.5,4726
121.69499969482422,121.69499969482422,121.44000244140625,121.52999877929688,1506
121.44999694824219,121.61000061035156,121.41999816894531,121.61000061035156,1537
121.5,121.54000091552734,121.30000305175781,121.44999694824219,5610
121.30999755859375,121.5199966430664,121.30000305175781,121.38500213623047,3411
121.4281005859375,121.59100341796875,121.31999969482422,121.47000122070312,2376
121.3499984741211,121.58999633789062,121.33999633789062,121.44999694824219,4175
121.33999633789062,121.33999633789062,121.1500015258789,121.1500015258789,2537
121.19499969482422,121.46499633789062,121.06999969482422,121.44000244140625,4686
121.36000061035156,121.81999969482422,121.30999755859375,121.81999969482422,3130
121.81999969482422,121.9000015258789,121.79000091552734,121.86000061035156,4110
121.80000305175781,121.88999938964844,121.69000244140625,121.72000122070312,8327
121.66000366210938,121.69999694824219,121.33999633789062,121.58000183105469,18672
121.55000305175781,121.79499816894531,121.16680145263672,121.33999633789062,69830
121.42,121.42,121.42,121.42,30268
120.81999969482422,121.80000305175781,120.81999969482422,120.8363037109375,2895
120.75,121.25,120.70999908447266,121.01000213623047,1358
120.80999755859375,121.12000274658203,120.76000213623047,121.02999877929688,3082
122.06999969482422,122.06999969482422,122.06999969482422,122.06999969482422,57649
121.91500091552734,122.08499908447266,121.72000122070312,122.05999755859375,9525
122.04000091552734,122.06210327148438,121.66999816894531,121.66999816894531,7970
121.74500274658203,121.74500274658203,121.45999908447266,121.5999984741211,7109
121.52999877929688,121.54000091552734,121.44999694824219,121.45999908447266,5789
121.375,121.55500030517578,121.01000213623047,121.0199966430664,4200
121.08999633789062,121.58999633789062,121.08999633789062,121.37000274658203,16110
121.3499984741211,121.3499984741211,120.86000061035156,120.86000061035156,6587
120.86000061035156,120.98999786376953,120.52999877929688,120.52999877929688,9305
120.66000366210938,120.68000030517578,120.16999816894531,120.29000091552734,7061
120.3499984741211,120.41500091552734,119.95999908447266,120.26000213623047,10732
120.16999816894531,120.16999816894531,119.55000305175781,119.61000061035156,17653
119.58000183105469,119.63999938964844,118.80999755859375,118.80999755859375,78197
118.83,118.83,118.83,118.83,0
118.0,118.0,118.0,118.0,0
119.22000122070312,119.22000122070312,117.97000122070312,118.05000305175781,7817
118.66999816894531,118.8499984741211,118.0999984741211,118.45500183105469,5158
118.44999694824219,118.44999694824219,117.68000030517578,117.68000030517578,4963
117.793701171875,118.6500015258789,117.55000305175781,118.41000366210938,11841
118.37000274658203,119.25,118.27999877929688,119.01000213623047,18978
119.02999877929688,120.06999969482422,119.00499725341797,119.62999725341797,30461
119.5999984741211,119.83000183105469,119.43000030517578,119.62000274658203,10491
119.81999969482422,120.03500366210938,119.68499755859375,119.73999786376953,8918
119.69000244140625,119.76000213623047,119.28500366210938,119.28500366210938,8709
119.36990356445312,119.36990356445312,119.11000061035156,119.11000061035156,7345
119.11000061035156,119.11000061035156,118.5999984741211,118.74500274658203,15118
118.75,119.26000213623047,118.75,119.01000213623047,6969
118.94000244140625,118.94000244140625,118.58999633789062,118.73999786376953,11810
118.55000305175781,118.55000305175781,118.2300033569336,118.26000213623047,3657
118.22000122070312,118.22000122070312,117.66000366210938,117.95999908447266,6613
117.94029998779297,117.94029998779297,117.50499725341797,117.69999694824219,6964
117.51000213623047,118.08999633789062,117.51000213623047,117.7300033569336,7859
117.75,117.76000213623047,117.0999984741211,117.2300033569336,9389
117.33000183105469,117.4000015258789,116.91999816894531,117.0,8599
117.0,117.08000183105469,116.55999755859375,116.61000061035156,7578
116.62999725341797,116.97000122070312,116.61000061035156,116.73999786376953,10150
116.73999786376953,116.73999786376953,116.4000015258789,116.41000366210938,10108
116.45999908447266,116.56999969482422,116.07499694824219,116.18000030517578,13115
116.18000030517578,116.38999938964844,115.83000183105469,115.8949966430664,15122
115.94999694824219,116.83000183105469,115.94999694824219,116.69999694824219,18972
116.5199966430664,116.74919891357422,116.2699966430664,116.37000274658203,50582
116.38,116.38,116.38,116.38,30711
116.62999725341797,116.62999725341797,116.62999725341797,116.62999725341797,251411
116.65499877929688,116.65499877929688,116.625,116.625,472
116.875,116.88999938964844,116.12999725341797,116.23999786376953,34195
116.30000305175781,116.37000274658203,115.5199966430664,115.5199966430664,16596
115.625,116.11000061035156,115.4000015258789,115.78500366210938,31972
116.7699966430664,116.7699966430664,116.05500030517578,116.05500030517578,1819
115.875,116.30000305175781,115.875,116.30000305175781,18116
116.34500122070312,116.34500122070312,116.34500122070312,116.34500122070312,21079
114.79000091552734,114.79000091552734,114.79000091552734,114.79000091552734,19503
115.08999633789062,115.23500061035156,114.91999816894531,115.23500061035156,12358
115.37000274658203,116.1500015258789,115.37000274658203,116.1500015258789,10823
116.16999816894531,116.23999786376953,115.97000122070312,116.23999786376953,7826
115.96499633789062,115.96499633789062,115.96499633789062,115.96499633789062,9770
115.80000305175781,115.80000305175781,115.5,115.5,19055
115.91000366210938,116.12000274658203,115.80000305175781,116.12000274658203,11250
116.08000183105469,116.08000183105469,115.91000366210938,115.94000244140625,13013
115.8499984741211,115.86000061035156,115.75749969482422,115.8499984741211,8848
115.70999908447266,116.20500183105469,115.67720031738281,116.20500183105469,11264
116.6500015258789,116.6500015258789,116.33999633789062,116.5999984741211,22380
116.43499755859375,116.62000274658203,116.3949966430664,116.56500244140625,9465
116.47000122070312,116.9000015258789,116.47000122070312,116.80999755859375,8554
116.6500015258789,117.19999694824219,116.6500015258789,117.19999694824219,15855
117.06999969482422,117.5,116.98999786376953,117.05000305175781,20297
117.51000213623047,117.51000213623047,117.51000213623047,117.51000213623047,22532
116.86499786376953,116.95999908447266,116.86499786376953,116.8949966430664,30662
115.83000183105469,115.83000183105469,115.83000183105469,115.83000183105469,17516
114.52999877929688,114.52999877929688,114.52999877929688,114.52999877929688,56647
115.41999816894531,115.41999816894531,114.8499984741211,114.8499984741211,48446
115.18000030517578,115.18000030517578,115.11000061035156,115.11000061035156,79095
115.19,115.19,115.19,115.19,0
116.07,116.07,116.07,116.07,0
115.77999877929688,117.27999877929688,114.76000213623047,117.27999877929688,5287
117.79519653320312,118.30000305175781,117.6050033569336,117.93000030517578,4161
117.77999877929688,118.24079895019531,117.22000122070312,117.37999725341797,8795
117.47000122070312,117.4800033569336,116.37000274658203,116.37000274658203,6409
116.12000274658203,116.63999938964844,115.8550033569336,116.63999938964844,7136
116.56999969482422,116.7300033569336,116.19999694824219,116.7300033569336,4647
116.62999725341797,116.83000183105469,116.41000366210938,116.83000183105469,6783
117.02999877929688,117.02999877929688,115.81999969482422,115.9800033569336,10574
115.88999938964844,116.36000061035156,115.76000213623047,116.15070343017578,6129
116.06999969482422,116.375,116.0,116.375,1893
116.43000030517578,116.43000030517578,115.69999694824219,115.97000122070312,7399
115.73999786376953,115.83000183105469,115.38999938964844,115.40499877929688,8072
115.30999755859375,115.30999755859375,114.66000366210938,114.66000366210938,3607
114.66000366210938,114.66000366210938,114.2300033569336,114.47000122070312,6956
114.4000015258789,114.4000015258789,114.13999938964844,114.13999938964844,5638
114.1500015258789,114.19999694824219,113.55000305175781,113.55000305175781,9615
113.45999908447266,113.79000091552734,113.27999877929688,113.54000091552734,8332
113.51000213623047,113.87999725341797,113.44000244140625,113.87999725341797,4945
114.08499908447266,114.30999755859375,113.91000366210938,113.94999694824219,4167
113.9000015258789,113.9000015258789,113.13999938964844,113.2300033569336,7674
113.30000305175781,113.75,113.2699966430664,113.5999984741211,9282
113.66999816894531,113.71600341796875,112.94499969482422,113.16000366210938,11863
113.2699966430664,113.5343017578125,112.66999816894531,112.73999786376953,16674
112.8499984741211,113.97000122070312,112.66999816894531,113.80000305175781,8873
113.91999816894531,114.1500015258789,113.62000274658203,113.76000213623047,11480
113.88999938964844,114.06999969482422,113.45999908447266,113.62000274658203,49054
113.65,113.65,113.65,113.65,0
113.83000183105469,113.83000183105469,113.2300033569336,113.6500015258789,1951
112.63999938964844,113.08999633789062,112.44999694824219,112.69999694824219,6426
112.88500213623047,113.47000122070312,112.88500213623047,113.2750015258789,4071
113.16000366210938,113.5199966430664,113.16000366210938,113.37000274658203,2355
113.30000305175781,113.30000305175781,112.76000213623047,112.76000213623047,5780
112.91000366210938,113.5,112.91000366210938,113.30999755859375,3317
113.66999816894531,113.66999816894531,113.0199966430664,113.13999938964844,5010
113.26000213623047,113.68000030517578,113.26000213623047,113.66999816894531,5451
113.62000274658203,114.05000305175781,113.62000274658203,113.91500091552734,3838
113.87000274658203,114.13999938964844,113.69000244140625,114.12999725341797,2625
114.02999877929688,114.5,114.02999877929688,114.12999725341797,11025
114.30999755859375,114.31999969482422,113.9749984741211,114.05999755859375,5637
114.13469696044922,114.21499633789062,114.01000213623047,114.1500015258789,4955
113.91000366210938,113.91000366210938,113.44000244140625,113.69999694824219,2025
113.80999755859375,114.16999816894531,113.80999755859375,114.16999816894531,2918
114.05000305175781,114.17500305175781,113.9800033569336,114.0999984741211,2260
114.2249984741211,114.41999816894531,114.09500122070312,114.21499633789062,5086
114.19000244140625,114.43000030517578,114.19000244140625,114.43000030517578,3644
114.4000015258789,114.52999877929688,113.73999786376953,113.77999877929688,4254
113.76000213623047,113.76000213623047,113.02999877929688,113.02999877929688,4001
113.06999969482422,113.72000122070312,113.0,113.72000122070312,4265
113.7300033569336,113.94999694824219,113.54000091552734,113.93000030517578,5299
114.05999755859375,114.26000213623047,113.94000244140625,114.06999969482422,4350
114.16999816894531,114.43000030517578,114.08999633789062,114.0999984741211,10782
113.9800033569336,114.2699966430664,113.88999938964844,114.0,24830
114.0,115.0999984741211,113.93000030517578,115.0999984741211,127766
115.05,115.05,115.049,115.049,0
115.01000213623047,115.98999786376953,114.2300033569336,115.98999786376953,2979
115.4800033569336,115.66000366210938,114.62999725341797,115.37000274658203,10224
115.48999786376953,115.55999755859375,115.11000061035156,115.31999969482422,9413
115.51499938964844,115.70999908447266,115.22000122070312,115.44000244140625,11407
115.29000091552734,115.58000183105469,114.91999816894531,115.16999816894531,9038
114.66000366210938,115.55999755859375,114.66000366210938,115.25499725341797,4079
115.33999633789062,115.44000244140625,114.9800033569336,115.44000244140625,4535
115.23999786376953,115.33999633789062,115.11100006103516,115.19000244140625,6164
115.2300033569336,115.36000061035156,115.0199966430664,115.08499908447266,7531
115.16000366210938,115.70999908447266,115.16000366210938,115.54000091552734,16669
115.66000366210938,116.18000030517578,115.66000366210938,115.91999816894531,8226
116.0,116.25,115.88999938964844,115.9800033569336,5718
115.91000366210938,115.91000366210938,115.66000366210938,115.91000366210938,4071
115.7300033569336,116.1500015258789,115.7300033569336,116.1500015258789,3193
116.04000091552734,116.12000274658203,115.9800033569336,116.06999969482422,3724
116.20999908447266,116.37000274658203,116.02999877929688,116.02999877929688,11802
116.04000091552734,116.48999786376953,115.94000244140625,116.41999816894531,7914
116.29000091552734,116.29000091552734,116.06999969482422,116.26000213623047,3855
116.3499984741211,116.75,116.33499908447266,116.75,7541
116.79000091552734,116.93499755859375,116.68000030517578,116.72000122070312,8077
116.70999908447266,116.86820220947266,116.61499786376953,116.61499786376953,11172
116.55000305175781,116.55000305175781,116.23999786376953,116.4000015258789,9287
116.3499984741211,116.41000366210938,115.79000091552734,115.79000091552734,11137
115.81999969482422,116.27999877929688,115.73999786376953,116.19999694824219,11676
116.1500015258789,116.77999877929688,116.08000183105469,116.7750015258789,21652
116.7300033569336,117.33999633789062,116.66000366210938,117.33000183105469,67173
117.3,117.3,117.299,117.3,0
115.6869,115.6869,115.6869,115.6869,0
118.2,118.2,118.2,118.2,0
117.08999633789062,118.93000030517578,116.7699966430664,118.55000305175781,24944
118.22000122070312,118.2249984741211,117.58000183105469,117.60009765625,19215
117.25,117.25,116.76000213623047,116.83999633789062,15235
116.86000061035156,117.13999938964844,116.83999633789062,116.95999908447266,3550
116.83999633789062,117.37000274658203,116.83999633789062,117.0,5892
117.0999984741211,117.18000030517578,117.0250015258789,117.08000183105469,3283
117.1500015258789,117.27999877929688,116.94999694824219,117.05000305175781,4814
116.91000366210938,117.02999877929688,116.88999938964844,116.88999938964844,4930
116.8499984741211,116.97000122070312,116.44999694824219,116.88999938964844,5589
116.93000030517578,116.93000030517578,116.66000366210938,116.66000366210938,1104
116.58999633789062,116.58999633789062,116.51000213623047,116.51000213623047,815
116.50499725341797,116.69999694824219,116.50499725341797,116.69999694824219,4452
116.83999633789062,117.08999633789062,116.56999969482422,116.86000061035156,5192
116.7300033569336,116.7300033569336,116.5199966430664,116.66999816894531,2136
116.7300033569336,116.7300033569336,116.52999877929688,116.55999755859375,1922
116.66999816894531,116.95999908447266,116.66999816894531,116.80000305175781,3109
116.77760314941406,117.0199966430664,116.77760314941406,116.97000122070312,3182
117.12480163574219,117.2699966430664,117.0,117.0,2017
116.97000122070312,117.02999877929688,116.75,116.9800033569336,5888
116.90499877929688,117.05500030517578,116.7750015258789,116.8499984741211,3878
116.98999786376953,117.29000091552734,116.98999786376953,117.11000061035156,2604
117.1050033569336,117.26000213623047,117.08999633789062,117.12999725341797,4426
117.18000030517578,117.44999694824219,117.08999633789062,117.44499969482422,7430
117.36000061035156,117.66999816894531,117.27999877929688,117.66999816894531,5594
117.56999969482422,117.69999694824219,117.37000274658203,117.37000274658203,11361
117.38999938964844,117.70999908447266,117.31999969482422,117.4800033569336,33757
117.48,117.48,117.479,117.479,0
116.69999694824219,116.69999694824219,116.45500183105469,116.45500183105469,1796
116.55999755859375,116.72000122070312,116.26000213623047,116.54000091552734,4280
116.66000366210938,116.77999877929688,116.1449966430664,116.4800033569336,20280
116.4800033569336,116.4800033569336,116.08499908447266,116.2699966430664,2844
116.11000061035156,116.75,116.01000213623047,116.73999786376953,62103
116.75,116.83000183105469,116.43000030517578,116.83000183105469,2832
116.86499786376953,117.0199966430664,116.70800018310547,116.70800018310547,49644
116.68000030517578,116.94000244140625,116.68000030517578,116.91500091552734,1175
116.80000305175781,116.87999725341797,116.75,116.80000305175781,3822
116.8550033569336,116.8550033569336,116.4000015258789,116.4000015258789,3476
116.25,116.67500305175781,116.25,116.67500305175781,3850
116.5,116.65989685058594,116.5,116.5199966430664,1897
116.48999786376953,116.63999938964844,116.48999786376953,116.55999755859375,1791
116.55000305175781,116.66999816894531,116.43000030517578,116.66999816894531,3375
116.63999938964844,116.66999816894531,116.5,116.5,1468
116.45999908447266,116.4800033569336,116.19000244140625,116.3499984741211,10105
116.41999816894531,116.41999816894531,116.30999755859375,116.33000183105469,2846
116.31999969482422,116.58000183105469,116.23999786376953,116.56999969482422,3600
116.5199966430664,116.66000366210938,116.44000244140625,116.55000305175781,3795
116.47000122070312,116.63999938964844,116.33000183105469,116.63999938964844,5046
116.5,116.61000061035156,116.37999725341797,116.61000061035156,2641
116.62000274658203,116.70999908447266,116.4749984741211,116.69000244140625,15613
116.68000030517578,116.70999908447266,116.41000366210938,116.56500244140625,9199
116.51000213623047,116.75,116.41000366210938,116.4749984741211,11556
116.4800033569336,116.69000244140625,116.2699966430664,116.48249816894531,25886
116.5199966430664,116.65499877929688,116.27999877929688,116.61000061035156,62350
116.62,116.62,116.62,116.62,0
116.62,116.62,116.62,116.62,0
116.44000244140625,116.44000244140625,115.66380310058594,116.16999816894531,3430
116.16000366210938,116.38999938964844,115.52999877929688,115.58999633789062,5017
115.91000366210938,116.51000213623047,115.91000366210938,116.51000213623047,2343
116.37000274658203,116.66000366210938,116.29000091552734,116.59249877929688,3420
116.68000030517578,117.16000366210938,116.68000030517578,117.12999725341797,2985
117.37000274658203,117.37999725341797,117.05000305175781,117.20999908447266,6878
117.0,117.30999755859375,116.94499969482422,117.30999755859375,5573
117.05999755859375,117.08000183105469,116.70999908447266,116.91999816894531,4786
117.01000213623047,117.09040069580078,116.76000213623047,116.76000213623047,2915
116.5,116.66000366210938,116.5,116.58499908447266,5463
116.44499969482422,116.5199966430664,116.23500061035156,116.5199966430664,3990
116.37999725341797,116.69000244140625,116.37999725341797,116.69000244140625,3104
116.58999633789062,116.69000244140625,116.43000030517578,116.62999725341797,3425
116.44999694824219,116.6500015258789,116.43000030517578,116.58999633789062,2292
116.53500366210938,116.66000366210938,116.5199966430664,116.66000366210938,2935
116.69999694824219,116.80999755859375,116.66000366210938,116.69000244140625,2498
116.73999786376953,116.8499984741211,116.6500015258789,116.80000305175781,4021
116.80000305175781,116.8949966430664,116.65010070800781,116.74500274658203,2981
116.66000366210938,116.66000366210938,116.41500091552734,116.43000030517578,5067
116.38999938964844,116.62000274658203,116.12000274658203,116.12000274658203,6719
116.12999725341797,116.12999725341797,115.75,115.75,5981
115.66999816894531,115.72000122070312,115.61000061035156,115.71499633789062,4924
115.77999877929688,115.80000305175781,115.46499633789062,115.55999755859375,6768
115.94999694824219,115.94999694824219,115.66549682617188,115.66549682617188,9296
115.72000122070312,115.72000122070312,115.12999725341797,115.2300033569336,10587
115.2300033569336,115.30000305175781,114.91000366210938,115.19000244140625,34076
115.19,115.19,115.19,115.19,0
115.5199966430664,115.56500244140625,115.5199966430664,115.56500244140625,120723
115.55999755859375,115.9749984741211,115.53500366210938,115.94000244140625,6923
115.87999725341797,115.87999725341797,115.63999938964844,115.80999755859375,9418
115.99500274658203,116.02999877929688,115.55000305175781,115.55000305175781,14281
115.52999877929688,115.56999969482422,115.20999908447266,115.26000213623047,58748
115.26,115.26,115.26,115.26,0
114.74,114.74,114.74,114.74,3
115.0,115.61000061035156,114.86000061035156,114.86000061035156,5012
115.08999633789062,115.47000122070312,114.73999786376953,115.36000061035156,2268
115.27999877929688,115.41500091552734,114.99500274658203,115.19999694824219,2807
115.18499755859375,115.45860290527344,115.11000061035156,115.11000061035156,3604
115.1050033569336,115.5199966430664,115.1050033569336,115.3499984741211,2798
115.5,115.75,115.5,115.75,6729
116.04000091552734,116.04000091552734,115.73999786376953,115.94999694824219,2877
116.0,116.0199966430664,115.72000122070312,115.73999786376953,4629
115.73500061035156,115.73500061035156,115.73500061035156,115.73500061035156,353
116.14659881591797,116.22000122070312,116.11000061035156,116.16000366210938,4161
116.12000274658203,116.12999725341797,116.02539825439453,116.02539825439453,4597
115.91999816894531,115.93000030517578,115.8635025024414,115.93000030517578,2985
115.9176025390625,116.25,115.81999969482422,116.22000122070312,14859
116.3949966430664,116.3949966430664,116.0999984741211,116.0999984741211,2779
116.22000122070312,116.2699966430664,116.05999755859375,116.05999755859375,3660
116.0,116.06999969482422,115.87000274658203,115.87000274658203,3690
115.97000122070312,116.1500015258789,115.87999725341797,115.87999725341797,3079
115.81999969482422,116.02999877929688,115.67140197753906,115.77999877929688,5354
115.86000061035156,116.10260009765625,115.80500030517578,116.10260009765625,3842
116.13999938964844,116.13999938964844,115.66000366210938,115.69999694824219,5254
115.76499938964844,115.95999908447266,115.7249984741211,115.74500274658203,7489
115.69000244140625,115.69000244140625,115.37999725341797,115.55999755859375,4594
115.62999725341797,115.95999908447266,115.52999877929688,115.95999908447266,5037
116.02999877929688,116.1500015258789,115.95999908447266,116.0999984741211,8312
116.05999755859375,116.37000274658203,115.94999694824219,116.0,18240
115.96499633789062,116.43499755859375,115.94000244140625,116.05999755859375,46169
116.1,116.1,116.05,116.05,0
117.08000183105469,117.50499725341797,116.33000183105469,116.33000183105469,1799
117.54000091552734,117.65499877929688,116.95999908447266,116.95999908447266,9178
116.7699966430664,117.16999816894531,116.76000213623047,116.9800033569336,7019
117.06999969482422,117.40750122070312,116.80000305175781,117.2750015258789,12546
117.18000030517578,117.26000213623047,116.9000015258789,116.91000366210938,9014
117.05999755859375,117.16999816894531,116.94000244140625,116.94000244140625,8889
116.98500061035156,117.01499938964844,116.63999938964844,116.63999938964844,4559
116.30000305175781,116.75,116.27999877929688,116.56999969482422,6370
116.55000305175781,116.58999633789062,116.36000061035156,116.44000244140625,9434
116.44000244140625,116.58000183105469,116.31999969482422,116.53500366210938,14473
116.69999694824219,116.87000274658203,116.61499786376953,116.63999938964844,7040
116.66000366210938,116.76499938964844,116.52999877929688,116.63999938964844,6575
116.63999938964844,116.80999755859375,116.56999969482422,116.77999877929688,4036
116.73999786376953,116.8499984741211,116.68000030517578,116.75499725341797,9670
116.80999755859375,116.86000061035156,116.43000030517578,116.43000030517578,9538
116.41500091552734,116.76000213623047,116.38999938964844,116.58000183105469,4369
116.58999633789062,116.7699966430664,116.58000183105469,116.7699966430664,5304
116.94999694824219,117.05999755859375,116.70999908447266,116.70999908447266,4759
116.6500015258789,116.8302993774414,116.62000274658203,116.7699966430664,4424
116.80000305175781,116.93000030517578,116.72000122070312,116.93000030517578,5732
116.9800033569336,117.11000061035156,116.95999908447266,117.01000213623047,4946
116.93000030517578,116.93000030517578,116.47000122070312,116.56999969482422,5706
116.55999755859375,116.62000274658203,116.5,116.51499938964844,3986
116.45999908447266,116.47000122070312,116.30000305175781,116.46499633789062,6935
116.41000366210938,116.58000183105469,116.19999694824219,116.30999755859375,14658
116.30000305175781,116.72000122070312,116.27999877929688,116.55000305175781,45635
116.47,116.55,116.47,116.55,0
115.5199966430664,116.22000122070312,115.08000183105469,116.22000122070312,2643
116.4749984741211,116.4749984741211,115.36000061035156,115.77999877929688,3995
116.16999816894531,116.54000091552734,115.9800033569336,116.52999877929688,7275
116.5,116.75499725341797,116.4800033569336,116.62999725341797,4191
116.7699966430664,117.08000183105469,116.7699966430664,116.87000274658203,4948
116.95999908447266,117.1500015258789,116.7300033569336,116.88059997558594,4612
116.8499984741211,117.19999694824219,116.55000305175781,117.13999938964844,13120
117.18499755859375,117.25,116.7300033569336,116.76499938964844,4382
116.7300033569336,116.83000183105469,116.62999725341797,116.83000183105469,2113
116.8499984741211,116.93000030517578,116.68000030517578,116.68000030517578,4620
116.80500030517578,116.80500030517578,116.69999694824219,116.76000213623047,2956
116.87000274658203,116.99500274658203,116.61000061035156,116.83000183105469,5071
116.83000183105469,116.93689727783203,116.58999633789062,116.6500015258789,3766
116.58000183105469,116.58000183105469,115.9000015258789,116.06999969482422,4855
116.01000213623047,116.01000213623047,115.79000091552734,115.95999908447266,3370
115.80000305175781,115.80000305175781,115.54000091552734,115.54000091552734,3123
115.37000274658203,115.37000274658203,115.05999755859375,115.05999755859375,4653
115.0,115.06999969482422,114.91999816894531,114.94000244140625,3787
115.05000305175781,115.05000305175781,114.45999908447266,114.4800033569336,8131
114.4000015258789,114.69999694824219,114.12000274658203,114.48999786376953,3862
114.6500015258789,114.75,114.54000091552734,114.69000244140625,3605
114.68499755859375,114.91000366210938,114.33999633789062,114.33999633789062,9684
114.5199966430664,114.87000274658203,114.4749984741211,114.81999969482422,4561
114.87999725341797,114.87999725341797,114.44999694824219,114.48999786376953,7830
114.26000213623047,114.55999755859375,113.94000244140625,113.94000244140625,16549
113.87999725341797,114.70999908447266,113.66000366210938,114.61000061035156,86483
114.52,114.61,114.52,114.61,0
115.04000091552734,115.81999969482422,114.94000244140625,115.44999694824219,4563
115.75,116.04000091552734,115.62999725341797,115.62999725341797,4409
115.7699966430664,116.13999938964844,115.75,115.75,5032
115.88999938964844,116.42500305175781,115.88999938964844,116.42500305175781,2884
116.44000244140625,116.44000244140625,115.79499816894531,116.16000366210938,6576
115.83999633789062,115.83999633789062,115.19999694824219,115.19999694824219,5182
115.55999755859375,115.61000061035156,115.22000122070312,115.30000305175781,3115
115.2699966430664,115.37000274658203,115.20999908447266,115.20999908447266,2018
115.06999969482422,115.13999938964844,114.91000366210938,114.91000366210938,1910
115.20999908447266,115.3499984741211,115.20999908447266,115.31999969482422,1726
115.28099822998047,115.48999786376953,115.16999816894531,115.16999816894531,11903
115.02999877929688,115.09110260009766,114.83000183105469,115.0,3651
114.98999786376953,115.02999877929688,114.7699966430664,114.7699966430664,3050
114.77649688720703,114.77999877929688,114.68000030517578,114.68000030517578,1818
114.56999969482422,114.92500305175781,114.56999969482422,114.76000213623047,2614
114.625,114.625,114.19000244140625,114.19000244140625,9727
114.12000274658203,114.23999786376953,113.33999633789062,113.37000274658203,5656
113.23999786376953,113.58000183105469,112.97000122070312,113.33000183105469,4929
113.0999984741211,113.5199966430664,112.87000274658203,113.5,8485
113.86000061035156,114.1500015258789,113.58999633789062,113.58999633789062,5027
113.66000366210938,114.1500015258789,113.54000091552734,113.54000091552734,8402
113.41999816894531,113.80000305175781,113.13999938964844,113.68000030517578,5997
113.51000213623047,113.93499755859375,113.3499984741211,113.38500213623047,9077
113.43000030517578,113.58000183105469,113.30000305175781,113.54000091552734,10444
113.72000122070312,113.7699966430664,113.29000091552734,113.5999984741211,19538
113.6050033569336,114.05000305175781,113.5,113.70999908447266,54455
113.71,113.71,113.71,113.71,0
113.0,113.0,113.0,113.0,0
113.70999908447266,114.47000122070312,112.4800033569336,114.47000122070312,2771
113.68000030517578,113.69000244140625,113.0199966430664,113.5770034790039,3349
113.43000030517578,113.52999877929688,112.87000274658203,113.1500015258789,3892
112.80000305175781,112.91000366210938,112.4375,112.77999877929688,4854
112.94000244140625,112.94000244140625,112.56999969482422,112.56999969482422,4157
112.95999908447266,113.06999969482422,112.8499984741211,112.8550033569336,4698
112.55000305175781,112.83000183105469,112.55000305175781,112.66000366210938,2701
112.69999694824219,113.02999877929688,112.69999694824219,113.02999877929688,2452
112.80000305175781,113.05000305175781,112.7300033569336,113.05000305175781,4183
113.22000122070312,113.26000213623047,112.94000244140625,112.94000244140625,3128
113.16999816894531,113.16999816894531,112.9000015258789,113.12999725341797,2828
113.30999755859375,113.68000030517578,113.30999755859375,113.61000061035156,3772
113.5,113.6500015258789,113.41999816894531,113.6500015258789,2025
113.61000061035156,113.76000213623047,113.61000061035156,113.6500015258789,3113
113.69999694824219,113.76000213623047,113.62000274658203,113.76000213623047,2636
113.51000213623047,113.54000091552734,113.13999938964844,113.41000366210938,4200
113.04000091552734,113.4000015258789,112.9800033569336,113.29000091552734,3780
113.22000122070312,113.22000122070312,112.6500015258789,112.80999755859375,6038
112.62000274658203,113.25,112.56999969482422,113.25,6203
113.23999786376953,113.75,113.0999984741211,113.66999816894531,9844
113.38999938964844,113.94999694824219,113.37000274658203,113.83000183105469,6643
113.83000183105469,114.08999633789062,113.69999694824219,113.91999816894531,8067
114.04000091552734,114.22000122070312,113.9000015258789,114.19999694824219,9896
114.2249984741211,114.2249984741211,113.95999908447266,114.12650299072266,7824
114.12999725341797,114.51000213623047,114.06999969482422,114.22000122070312,15181
114.22000122070312,114.45999908447266,113.83000183105469,114.02999877929688,75498
114.1,114.1,114.1,114.1,56471
114.1,114.1,114.1,114.1,0
114.25,114.50499725341797,114.05000305175781,114.05000305175781,3015
114.05000305175781,114.05000305175781,113.19000244140625,113.19000244140625,5064
113.41999816894531,113.61000061035156,113.19000244140625,113.19039916992188,3562
113.26000213623047,113.54000091552734,113.0999984741211,113.44999694824219,9981
113.45059967041016,113.62999725341797,113.26000213623047,113.55000305175781,4424
113.47000122070312,113.70500183105469,113.43499755859375,113.69999694824219,16452
113.93000030517578,114.0,113.77999877929688,113.77999877929688,5538
113.95999908447266,114.19999694824219,113.90499877929688,114.08000183105469,8186
114.13999938964844,114.2300033569336,113.80000305175781,113.80000305175781,3635
113.91999816894531,114.18000030517578,113.91000366210938,114.01499938964844,3984
114.12999725341797,114.33830261230469,114.08999633789062,114.25499725341797,3107
114.30000305175781,114.30000305175781,114.16000366210938,114.16999816894531,3224
114.18000030517578,114.18000030517578,113.9800033569336,114.07499694824219,5487
114.13999938964844,114.41999816894531,114.13999938964844,114.34500122070312,3665
114.20999908447266,114.32499694824219,114.16999816894531,114.25499725341797,4036
114.12000274658203,114.25,114.11000061035156,114.20999908447266,3244
114.0999984741211,114.20999908447266,114.0,114.0999984741211,4085
114.13999938964844,114.19999694824219,113.95939636230469,114.02999877929688,4284
114.08000183105469,114.2300033569336,113.63999938964844,114.08999633789062,9830
114.0999984741211,114.55999755859375,113.9800033569336,114.55999755859375,20748
114.52999877929688,115.01499938964844,114.47000122070312,114.67500305175781,9646
114.75,114.75,114.5999984741211,114.70500183105469,4902
114.70500183105469,115.0199966430664,114.66999816894531,114.87999725341797,8395
114.80999755859375,115.06500244140625,114.80999755859375,114.96499633789062,6289
114.88999938964844,115.00499725341797,114.77999877929688,114.97000122070312,16425
114.8949966430664,115.07599639892578,114.5999984741211,114.66999816894531,63945
114.82,114.82,114.7,114.7,0
