Datetime,Open,High,Low,Close,Volume
2022-01-19 09:30:00-05:00,120.76000213623047,120.76000213623047,120.58999633789062,120.58999633789062,297
2022-01-19 09:45:00-05:00,120.81999969482422,121.25,120.79000091552734,120.93000030517578,3807
2022-01-19 10:00:00-05:00,120.94999694824219,121.5999984741211,120.76000213623047,121.28500366210938,8993
2022-01-19 10:15:00-05:00,121.12999725341797,121.4800033569336,120.75,120.75,22353
2022-01-19 10:30:00-05:00,120.71089935302734,120.88999938964844,120.66000366210938,120.80500030517578,5940
2022-01-19 10:45:00-05:00,120.80500030517578,120.9000015258789,120.5,120.88999938964844,11060
2022-01-19 11:00:00-05:00,120.97000122070312,121.30000305175781,120.7699966430664,121.05999755859375,5963
2022-01-19 11:15:00-05:00,121.08000183105469,121.13999938964844,120.77999877929688,121.13999938964844,11914
2022-01-19 11:30:00-05:00,121.13999938964844,121.20999908447266,120.95999908447266,121.18000030517578,2903
2022-01-19 11:45:00-05:00,121.13999938964844,121.66000366210938,121.13999938964844,121.66000366210938,3302
2022-01-19 12:00:00-05:00,121.7300033569336,121.7854995727539,121.5199966430664,121.7854995727539,4444
2022-01-19 12:15:00-05:00,121.79000091552734,121.79000091552734,121.58000183105469,121.76000213623047,2812
2022-01-19 12:30:00-05:00,121.81999969482422,121.85310363769531,121.36000061035156,121.5,4726
2022-01-19 12:45:00-05:00,121.69499969482422,121.69499969482422,121.44000244140625,121.52999877929688,1506
2022-01-19 13:00:00-05:00,121.44999694824219,121.61000061035156,121.41999816894531,121.61000061035156,1535
2022-01-19 13:15:00-05:00,121.5,121.54000091552734,121.30000305175781,121.44999694824219,5612
2022-01-19 13:30:00-05:00,121.30999755859375,121.5199966430664,121.30000305175781,121.38500213623047,3411
2022-01-19 13:45:00-05:00,121.4281005859375,121.59100341796875,121.31999969482422,121.47000122070312,2376
2022-01-19 14:00:00-05:00,121.3499984741211,121.58999633789062,121.33999633789062,121.44999694824219,4175
2022-01-19 14:15:00-05:00,121.33999633789062,121.33999633789062,121.1500015258789,121.1500015258789,2537
2022-01-19 14:30:00-05:00,121.19499969482422,121.46499633789062,121.06999969482422,121.44000244140625,4686
2022-01-19 14:45:00-05:00,121.36000061035156,121.81999969482422,121.30999755859375,121.81999969482422,3130
2022-01-19 15:00:00-05:00,121.81999969482422,121.9000015258789,121.79000091552734,121.86000061035156,4110
2022-01-19 15:15:00-05:00,121.80000305175781,121.88999938964844,121.69000244140625,121.72000122070312,8327
2022-01-19 15:30:00-05:00,121.66000366210938,121.69999694824219,121.33999633789062,121.58000183105469,18672
2022-01-19 15:45:00-05:00,121.55000305175781,121.79499816894531,121.16680145263672,121.33999633789062,69830
2022-01-19 16:00:00-05:00,121.42,121.42,121.42,121.42,30268
2022-01-20 09:30:00-05:00,120.81999969482422,121.80000305175781,120.81999969482422,120.8363037109375,2895
2022-01-20 09:45:00-05:00,120.75,121.25,120.70999908447266,121.01000213623047,1358
2022-01-20 10:00:00-05:00,120.80999755859375,121.41999816894531,120.76000213623047,121.12000274658203,7387
2022-01-20 10:15:00-05:00,121.35569763183594,121.66999816894531,121.22000122070312,121.58999633789062,7096
2022-01-20 10:30:00-05:00,121.7699966430664,121.87000274658203,121.60399627685547,121.81999969482422,4926
2022-01-20 10:45:00-05:00,121.9800033569336,122.30999755859375,121.68000030517578,121.68000030517578,3178
2022-01-20 11:00:00-05:00,121.7699966430664,121.87000274658203,121.5199966430664,121.5199966430664,4966
2022-01-20 11:15:00-05:00,121.6500015258789,122.04000091552734,121.6500015258789,121.76000213623047,4196
2022-01-20 11:30:00-05:00,121.81999969482422,122.0199966430664,121.7300033569336,121.8499984741211,6677
2022-01-20 11:45:00-05:00,121.88999938964844,122.23999786376953,121.82499694824219,122.05999755859375,6083
2022-01-20 12:00:00-05:00,122.18000030517578,122.18000030517578,121.93000030517578,122.05999755859375,3424
2022-01-20 12:15:00-05:00,121.93000030517578,122.25,121.93000030517578,122.25,4839
2022-01-20 12:30:00-05:00,122.26000213623047,122.29000091552734,122.18000030517578,122.26000213623047,2620
2022-01-20 12:45:00-05:00,122.19999694824219,122.2300033569336,122.06999969482422,122.06999969482422,5339
2022-01-20 13:00:00-05:00,121.91500091552734,122.08499908447266,121.72000122070312,122.05999755859375,9525
2022-01-20 13:15:00-05:00,122.04000091552734,122.06210327148438,121.66999816894531,121.66999816894531,7970
2022-01-20 13:30:00-05:00,121.74500274658203,121.74500274658203,121.45500183105469,121.5999984741211,7109
2022-01-20 13:45:00-05:00,121.52999877929688,121.54499816894531,121.43000030517578,121.45999908447266,5789
2022-01-20 14:00:00-05:00,121.375,121.55500030517578,121.01000213623047,121.0199966430664,4200
2022-01-20 14:15:00-05:00,121.08999633789062,121.58999633789062,121.08999633789062,121.37000274658203,16110
2022-01-20 14:30:00-05:00,121.3499984741211,121.3499984741211,120.86000061035156,120.86000061035156,6587
2022-01-20 14:45:00-05:00,120.86000061035156,120.98999786376953,120.52999877929688,120.52999877929688,9305
2022-01-20 15:00:00-05:00,120.66000366210938,120.68000030517578,120.16999816894531,120.29000091552734,7061
2022-01-20 15:15:00-05:00,120.3499984741211,120.41500091552734,119.92500305175781,120.26000213623047,10732
2022-01-20 15:30:00-05:00,120.16999816894531,120.16999816894531,119.55000305175781,119.61000061035156,17743
2022-01-20 15:45:00-05:00,119.58000183105469,119.63999938964844,118.80999755859375,118.80999755859375,78107
2022-01-20 16:00:00-05:00,118.83,118.83,118.83,118.83,0
2022-01-20 16:30:00-05:00,118.0,118.0,118.0,118.0,0
2022-01-21 09:30:00-05:00,119.22000122070312,119.22000122070312,117.97000122070312,118.05000305175781,6394
2022-01-21 09:45:00-05:00,117.87999725341797,118.8499984741211,117.87999725341797,118.45500183105469,6581
2022-01-21 10:00:00-05:00,118.44999694824219,118.44999694824219,117.68000030517578,117.68000030517578,4963
2022-01-21 10:15:00-05:00,117.793701171875,118.6500015258789,117.55000305175781,118.41000366210938,11841
2022-01-21 10:30:00-05:00,118.37000274658203,119.25,118.27999877929688,119.01000213623047,18978
2022-01-21 10:45:00-05:00,119.02999877929688,120.06999969482422,119.00499725341797,119.62999725341797,30461
2022-01-21 11:00:00-05:00,119.5999984741211,119.83000183105469,119.43000030517578,119.62000274658203,10491
2022-01-21 11:15:00-05:00,119.81999969482422,120.03500366210938,119.68499755859375,119.73999786376953,8918
2022-01-21 11:30:00-05:00,119.69000244140625,119.76000213623047,119.28500366210938,119.28500366210938,8709
2022-01-21 11:45:00-05:00,119.36990356445312,119.36990356445312,119.11000061035156,119.11000061035156,7345
2022-01-21 12:00:00-05:00,119.11000061035156,119.11000061035156,118.5999984741211,118.74500274658203,15118
2022-01-21 12:15:00-05:00,118.75,119.26000213623047,118.75,119.01000213623047,6969
2022-01-21 12:30:00-05:00,118.94000244140625,118.94000244140625,118.58999633789062,118.73999786376953,10757
2022-01-21 12:45:00-05:00,118.69999694824219,118.69999694824219,118.2300033569336,118.26000213623047,4710
2022-01-21 13:00:00-05:00,118.22000122070312,118.22000122070312,117.66000366210938,117.95999908447266,6613
2022-01-21 13:15:00-05:00,117.94029998779297,117.94029998779297,117.50499725341797,117.69999694824219,6964
2022-01-21 13:30:00-05:00,117.51000213623047,118.08999633789062,117.51000213623047,117.7300033569336,7859
2022-01-21 13:45:00-05:00,117.75,117.76000213623047,117.0999984741211,117.2300033569336,9389
2022-01-21 14:00:00-05:00,117.33000183105469,117.4000015258789,116.91999816894531,117.0,8599
2022-01-21 14:15:00-05:00,117.0,117.08000183105469,116.55999755859375,116.61000061035156,7578
2022-01-21 14:30:00-05:00,116.62999725341797,116.97000122070312,116.55999755859375,116.73999786376953,10150
2022-01-21 14:45:00-05:00,116.73999786376953,116.73999786376953,116.4000015258789,116.41000366210938,10108
2022-01-21 15:00:00-05:00,116.45999908447266,116.56999969482422,116.07499694824219,116.18000030517578,13115
2022-01-21 15:15:00-05:00,116.18000030517578,116.38999938964844,115.83000183105469,115.8949966430664,15122
2022-01-21 15:30:00-05:00,115.94999694824219,116.83000183105469,115.94999694824219,116.69999694824219,19024
2022-01-21 15:45:00-05:00,116.5199966430664,116.74919891357422,116.2699966430664,116.37000274658203,50530
2022-01-21 16:00:00-05:00,116.38,116.38,116.38,116.38,30711
2022-01-24 09:30:00-05:00,115.58999633789062,116.4800033569336,115.0999984741211,115.0999984741211,7404
2022-01-24 09:45:00-05:00,115.12000274658203,115.69999694824219,115.11000061035156,115.55000305175781,5402
2022-01-24 10:00:00-05:00,115.55000305175781,115.58999633789062,114.5999984741211,115.25,9532
2022-01-24 10:15:00-05:00,115.125,115.77999877929688,114.63999938964844,115.48999786376953,6389
2022-01-24 10:30:00-05:00,115.55999755859375,115.83499908447266,115.12000274658203,115.83499908447266,13887
2022-01-24 10:45:00-05:00,115.83000183105469,116.2300033569336,115.37999725341797,115.88999938964844,16599
2022-01-24 11:00:00-05:00,115.66999816894531,115.80999755859375,115.5,115.63999938964844,8452
2022-01-24 11:15:00-05:00,115.69999694824219,116.06999969482422,115.47000122070312,115.5,12941
2022-01-24 11:30:00-05:00,115.6050033569336,115.6875,115.34500122070312,115.4800033569336,16527
2022-01-24 11:45:00-05:00,115.5250015258789,115.6500015258789,114.88999938964844,115.25,7167
2022-01-24 12:00:00-05:00,115.25499725341797,115.25499725341797,114.72000122070312,114.76000213623047,6814
2022-01-24 12:15:00-05:00,114.69999694824219,114.80999755859375,114.30000305175781,114.47000122070312,9494
2022-01-24 12:30:00-05:00,114.44999694824219,114.77999877929688,114.02999877929688,114.62999725341797,7941
2022-01-24 12:45:00-05:00,114.58999633789062,115.08499908447266,114.36000061035156,115.0,8991
2022-01-24 13:00:00-05:00,114.9000015258789,115.58999633789062,114.87000274658203,115.55000305175781,4698
2022-01-24 13:15:00-05:00,115.62000274658203,115.75,115.33000183105469,115.40499877929688,8548
2022-01-24 13:30:00-05:00,115.55999755859375,115.63999938964844,115.0,115.0,6769
2022-01-24 13:45:00-05:00,115.19999694824219,115.84500122070312,115.19999694824219,115.84500122070312,7566
2022-01-24 14:00:00-05:00,115.86499786376953,116.30999755859375,115.7300033569336,115.82499694824219,9422
2022-01-24 14:15:00-05:00,115.7699966430664,115.7699966430664,114.79550170898438,114.9000015258789,7640
2022-01-24 14:30:00-05:00,114.97000122070312,115.19999694824219,114.54000091552734,114.58999633789062,7485
2022-01-24 14:45:00-05:00,114.37000274658203,115.22000122070312,114.3499984741211,115.22000122070312,6808
2022-01-24 15:00:00-05:00,115.2699966430664,115.87000274658203,115.25499725341797,115.76000213623047,7026
2022-01-24 15:15:00-05:00,115.83999633789062,116.1500015258789,115.75,115.91000366210938,16490
2022-01-24 15:30:00-05:00,115.87000274658203,116.48999786376953,115.7218017578125,116.0199966430664,20750
2022-01-24 15:45:00-05:00,116.05000305175781,117.25,116.05000305175781,117.05000305175781,57918
2022-01-24 16:00:00-05:00,117.04,117.61,117.03,117.03,27006
2022-01-24 16:15:00-05:00,117.03,117.03,117.03,117.03,0
2022-01-25 09:30:00-05:00,114.72000122070312,115.0,114.23999786376953,114.30000305175781,13937
2022-01-25 09:45:00-05:00,114.08000183105469,114.2699966430664,113.58999633789062,113.77999877929688,13035
2022-01-25 10:00:00-05:00,113.77999877929688,114.20999908447266,113.0999984741211,113.41000366210938,12603
2022-01-25 10:15:00-05:00,113.57499694824219,115.07499694824219,113.57499694824219,114.9000015258789,23020
2022-01-25 10:30:00-05:00,114.83999633789062,114.94999694824219,114.05000305175781,114.38999938964844,13687
2022-01-25 10:45:00-05:00,114.47000122070312,114.81999969482422,113.6500015258789,113.6500015258789,9253
2022-01-25 11:00:00-05:00,113.62999725341797,113.73999786376953,113.4000015258789,113.52999877929688,13864
2022-01-25 11:15:00-05:00,113.43000030517578,114.33999633789062,113.4000015258789,114.23500061035156,9153
2022-01-25 11:30:00-05:00,114.19999694824219,114.19999694824219,113.44499969482422,113.55000305175781,8545
2022-01-25 11:45:00-05:00,113.66999816894531,114.44000244140625,113.55000305175781,113.87000274658203,9599
2022-01-25 12:00:00-05:00,113.70500183105469,114.27999877929688,113.55000305175781,114.0199966430664,8200
2022-01-25 12:15:00-05:00,114.30599975585938,114.36000061035156,113.75,114.05000305175781,12538
2022-01-25 12:30:00-05:00,113.94000244140625,113.9749984741211,113.52999877929688,113.83000183105469,9132
2022-01-25 12:45:00-05:00,113.86000061035156,114.13999938964844,113.66999816894531,114.13999938964844,9396
2022-01-25 13:00:00-05:00,113.95999908447266,114.30999755859375,113.87999725341797,114.30999755859375,6504
2022-01-25 13:15:00-05:00,114.19000244140625,115.26000213623047,114.12999725341797,115.26000213623047,10610
2022-01-25 13:30:00-05:00,115.21050262451172,115.8499984741211,115.18000030517578,115.75,15782
2022-01-25 13:45:00-05:00,115.81999969482422,116.19000244140625,115.76000213623047,115.98999786376953,9732
2022-01-25 14:00:00-05:00,116.05000305175781,116.45999908447266,115.92500305175781,116.44999694824219,12294
2022-01-25 14:15:00-05:00,116.37000274658203,116.62999725341797,116.19000244140625,116.22000122070312,12640
2022-01-25 14:30:00-05:00,116.27999877929688,116.73500061035156,116.1500015258789,116.62999725341797,17887
2022-01-25 14:45:00-05:00,116.65499877929688,116.82499694824219,116.48999786376953,116.82499694824219,13459
2022-01-25 15:00:00-05:00,116.87999725341797,116.93499755859375,116.12999725341797,116.23999786376953,21208
2022-01-25 15:15:00-05:00,116.30000305175781,116.37000274658203,115.5199966430664,115.5199966430664,16596
2022-01-25 15:30:00-05:00,115.625,116.11000061035156,115.4000015258789,115.78500366210938,31972
2022-01-25 15:45:00-05:00,115.91999816894531,116.22000122070312,115.61000061035156,116.08000183105469,95811
2022-01-25 16:00:00-05:00,116.03,116.03,116.03,116.03,38176
2022-01-26 08:45:00-05:00,116.6,116.6,116.6,116.6,0
2022-01-26 09:30:00-05:00,115.77999877929688,116.7699966430664,115.54000091552734,116.15499877929688,10197
2022-01-26 09:45:00-05:00,116.25,116.56999969482422,115.875,116.51499938964844,25837
2022-01-26 10:00:00-05:00,116.51499938964844,116.66999816894531,116.08000183105469,116.08000183105469,11389
2022-01-26 10:15:00-05:00,115.94999694824219,116.0999984741211,114.91000366210938,115.02999877929688,10568
2022-01-26 10:30:00-05:00,114.83999633789062,115.08499908447266,114.7300033569336,114.7300033569336,11691
2022-01-26 10:45:00-05:00,114.83999633789062,115.36000061035156,114.83999633789062,115.31999969482422,9470
2022-01-26 11:00:00-05:00,115.31999969482422,116.18000030517578,115.30000305175781,116.18000030517578,11388
2022-01-26 11:15:00-05:00,116.15499877929688,116.44999694824219,115.97000122070312,116.34500122070312,12434
2022-01-26 11:30:00-05:00,116.19999694824219,116.33999633789062,115.8499984741211,115.875,10320
2022-01-26 11:45:00-05:00,115.80000305175781,115.87999725341797,115.5,115.8030014038086,14301
2022-01-26 12:00:00-05:00,115.9000015258789,116.12000274658203,115.75499725341797,116.12000274658203,9344
2022-01-26 12:15:00-05:00,116.08000183105469,116.19000244140625,115.86000061035156,115.94000244140625,13013
2022-01-26 12:30:00-05:00,115.86000061035156,115.93000030517578,115.55999755859375,115.84500122070312,10045
2022-01-26 12:45:00-05:00,115.7300033569336,116.41000366210938,115.66999816894531,116.41000366210938,11262
2022-01-26 13:00:00-05:00,116.41000366210938,116.66000366210938,116.30000305175781,116.5999984741211,21185
2022-01-26 13:15:00-05:00,116.55500030517578,116.62000274658203,116.2699966430664,116.52999877929688,11199
2022-01-26 13:30:00-05:00,116.48999786376953,116.93499755859375,116.47000122070312,116.80139923095703,11543
2022-01-26 13:45:00-05:00,116.75,117.19999694824219,116.6447982788086,116.80000305175781,13541
2022-01-26 14:00:00-05:00,116.80999755859375,117.55000305175781,116.6500015258789,116.6500015258789,22607
2022-01-26 14:15:00-05:00,116.69999694824219,117.53500366210938,116.68000030517578,117.41999816894531,21338
2022-01-26 14:30:00-05:00,117.41000366210938,117.48999786376953,116.37999725341797,116.55500030517578,30790
2022-01-26 14:45:00-05:00,116.2699966430664,116.2699966430664,115.6500015258789,116.20999908447266,24675
2022-01-26 15:00:00-05:00,116.18000030517578,116.22000122070312,115.08000183105469,115.08000183105469,31396
2022-01-26 15:15:00-05:00,115.12000274658203,115.36000061035156,114.41000366210938,115.36000061035156,25962
2022-01-26 15:30:00-05:00,115.37000274658203,115.5199966430664,114.7699966430664,115.05000305175781,40517
2022-01-26 15:45:00-05:00,114.97000122070312,115.5999984741211,114.86000061035156,115.08000183105469,145234
2022-01-26 16:00:00-05:00,115.09,115.19,115.09,115.19,0
2022-01-27 09:00:00-05:00,116.07,116.07,116.07,116.07,0
2022-01-27 09:30:00-05:00,115.77999877929688,117.27999877929688,114.76000213623047,117.27999877929688,5287
2022-01-27 09:45:00-05:00,117.79519653320312,118.30000305175781,117.6050033569336,117.93000030517578,4161
2022-01-27 10:00:00-05:00,117.77999877929688,118.24079895019531,117.22000122070312,117.37999725341797,8795
2022-01-27 10:15:00-05:00,117.47000122070312,117.4800033569336,116.37000274658203,116.37000274658203,6409
2022-01-27 10:30:00-05:00,116.12000274658203,116.63999938964844,115.8550033569336,116.63999938964844,6154
2022-01-27 10:45:00-05:00,116.76000213623047,116.76000213623047,116.19999694824219,116.7300033569336,5629
2022-01-27 11:00:00-05:00,116.62999725341797,116.83000183105469,116.41000366210938,116.83000183105469,6783
2022-01-27 11:15:00-05:00,117.02999877929688,117.02999877929688,115.81999969482422,115.9800033569336,10489
2022-01-27 11:30:00-05:00,115.76000213623047,116.36000061035156,115.76000213623047,116.15070343017578,4821
2022-01-27 11:45:00-05:00,116.22000122070312,116.375,116.0,116.375,3286
2022-01-27 12:00:00-05:00,116.43000030517578,116.43000030517578,115.69999694824219,115.97000122070312,7399
2022-01-27 12:15:00-05:00,115.73999786376953,115.83000183105469,115.38999938964844,115.40499877929688,8072
2022-01-27 12:30:00-05:00,115.30999755859375,115.30999755859375,114.66000366210938,114.66000366210938,3607
2022-01-27 12:45:00-05:00,114.66000366210938,114.66000366210938,114.2300033569336,114.47000122070312,6956
2022-01-27 13:00:00-05:00,114.4000015258789,114.4000015258789,114.13999938964844,114.13999938964844,5638
2022-01-27 13:15:00-05:00,114.1500015258789,114.19999694824219,113.55000305175781,113.55000305175781,9615
2022-01-27 13:30:00-05:00,113.45999908447266,113.79000091552734,113.27999877929688,113.54000091552734,8332
2022-01-27 13:45:00-05:00,113.51000213623047,113.87999725341797,113.44000244140625,113.87999725341797,4945
2022-01-27 14:00:00-05:00,114.08499908447266,114.30999755859375,113.91000366210938,113.94999694824219,4167
2022-01-27 14:15:00-05:00,113.9000015258789,113.9000015258789,113.13999938964844,113.2300033569336,7674
2022-01-27 14:30:00-05:00,113.30000305175781,113.75,113.2699966430664,113.5999984741211,8632
2022-01-27 14:45:00-05:00,113.69000244140625,113.71600341796875,112.94499969482422,113.16000366210938,12513
2022-01-27 15:00:00-05:00,113.2699966430664,113.5343017578125,112.66999816894531,112.73999786376953,16674
2022-01-27 15:15:00-05:00,112.8499984741211,113.97000122070312,112.66999816894531,113.80000305175781,8873
2022-01-27 15:30:00-05:00,113.91999816894531,114.1500015258789,113.62000274658203,113.76000213623047,11623
2022-01-27 15:45:00-05:00,113.88999938964844,114.1500015258789,113.45999908447266,113.62000274658203,48911
2022-01-27 16:00:00-05:00,113.65,113.65,113.65,113.65,0
2022-01-28 09:30:00-05:00,113.83000183105469,113.83000183105469,113.2300033569336,113.6500015258789,2012
2022-01-28 09:45:00-05:00,112.63999938964844,113.08999633789062,112.44999694824219,112.69999694824219,6365
2022-01-28 10:00:00-05:00,112.88500213623047,113.47000122070312,112.88500213623047,113.2750015258789,4071
2022-01-28 10:15:00-05:00,113.16000366210938,113.5199966430664,113.16000366210938,113.37000274658203,2355
2022-01-28 10:30:00-05:00,113.30000305175781,113.3499984741211,112.76000213623047,112.76000213623047,4980
2022-01-28 10:45:00-05:00,112.62000274658203,113.5,112.62000274658203,113.30999755859375,4117
2022-01-28 11:00:00-05:00,113.66999816894531,113.66999816894531,113.0199966430664,113.13999938964844,5010
2022-01-28 11:15:00-05:00,113.26000213623047,113.68000030517578,113.26000213623047,113.66999816894531,5451
2022-01-28 11:30:00-05:00,113.62000274658203,114.05000305175781,113.62000274658203,113.91500091552734,3318
2022-01-28 11:45:00-05:00,114.0,114.13999938964844,113.69000244140625,114.12999725341797,3145
2022-01-28 12:00:00-05:00,114.02999877929688,114.5,114.02999877929688,114.12999725341797,11025
2022-01-28 12:15:00-05:00,114.30999755859375,114.31999969482422,113.9749984741211,114.05999755859375,5637
2022-01-28 12:30:00-05:00,114.13469696044922,114.21499633789062,114.01000213623047,114.1500015258789,4113
2022-01-28 12:45:00-05:00,114.0199966430664,114.0199966430664,113.44000244140625,113.69999694824219,2867
2022-01-28 13:00:00-05:00,113.80999755859375,114.16999816894531,113.80999755859375,114.16999816894531,2918
2022-01-28 13:15:00-05:00,114.05000305175781,114.17500305175781,113.9800033569336,114.0999984741211,2260
2022-01-28 13:30:00-05:00,114.2249984741211,114.41999816894531,114.09500122070312,114.21499633789062,5086
2022-01-28 13:45:00-05:00,114.19000244140625,114.43000030517578,114.19000244140625,114.43000030517578,3644
2022-01-28 14:00:00-05:00,114.4000015258789,114.52999877929688,113.73999786376953,113.77999877929688,4254
2022-01-28 14:15:00-05:00,113.76000213623047,113.76000213623047,113.02999877929688,113.02999877929688,4001
2022-01-28 14:30:00-05:00,113.06999969482422,113.72000122070312,113.0,113.72000122070312,4265
2022-01-28 14:45:00-05:00,113.7300033569336,113.94999694824219,113.54000091552734,113.93000030517578,5299
2022-01-28 15:00:00-05:00,114.05999755859375,114.26000213623047,113.94000244140625,114.06999969482422,4350
2022-01-28 15:15:00-05:00,114.16999816894531,114.43000030517578,114.08999633789062,114.0999984741211,10782
2022-01-28 15:30:00-05:00,113.9800033569336,114.2699966430664,113.88999938964844,114.0,24830
2022-01-28 15:45:00-05:00,114.0,115.0999984741211,113.93000030517578,115.0999984741211,127766
2022-01-28 16:00:00-05:00,115.05,115.05,115.049,115.049,0
2022-01-31 09:30:00-05:00,115.01000213623047,115.98999786376953,114.2300033569336,115.98999786376953,2979
2022-01-31 09:45:00-05:00,115.4800033569336,115.66000366210938,114.62999725341797,115.37000274658203,10224
2022-01-31 10:00:00-05:00,115.48999786376953,115.55999755859375,115.11000061035156,115.31999969482422,9413
2022-01-31 10:15:00-05:00,115.51499938964844,115.70999908447266,115.22000122070312,115.44000244140625,11407
2022-01-31 10:30:00-05:00,115.29000091552734,115.52999877929688,114.91999816894531,115.16999816894531,7617
2022-01-31 10:45:00-05:00,114.93000030517578,115.55999755859375,114.66000366210938,115.25499725341797,5500
2022-01-31 11:00:00-05:00,115.33999633789062,115.44000244140625,114.9800033569336,115.44000244140625,4535
2022-01-31 11:15:00-05:00,115.23999786376953,115.33999633789062,115.11100006103516,115.19000244140625,6164
2022-01-31 11:30:00-05:00,115.2300033569336,115.36000061035156,115.0199966430664,115.08499908447266,7531
2022-01-31 11:45:00-05:00,115.16000366210938,115.70999908447266,115.16000366210938,115.54000091552734,16669
2022-01-31 12:00:00-05:00,115.66000366210938,116.18000030517578,115.66000366210938,115.91999816894531,8226
2022-01-31 12:15:00-05:00,116.0,116.25,115.88999938964844,115.9800033569336,5718
2022-01-31 12:30:00-05:00,115.91000366210938,115.91000366210938,115.66000366210938,115.91000366210938,4174
2022-01-31 12:45:00-05:00,115.75,116.1500015258789,115.7300033569336,116.1500015258789,3090
2022-01-31 13:00:00-05:00,116.04000091552734,116.12000274658203,115.9800033569336,116.06999969482422,3724
2022-01-31 13:15:00-05:00,116.20999908447266,116.37000274658203,116.02999877929688,116.02999877929688,11802
2022-01-31 13:30:00-05:00,116.04000091552734,116.48999786376953,115.94000244140625,116.41999816894531,7914
2022-01-31 13:45:00-05:00,116.29000091552734,116.29000091552734,116.06999969482422,116.26000213623047,3855
2022-01-31 14:00:00-05:00,116.3499984741211,116.75,116.33499908447266,116.75,7541
2022-01-31 14:15:00-05:00,116.79000091552734,116.93499755859375,116.68000030517578,116.72000122070312,8077
2022-01-31 14:30:00-05:00,116.70999908447266,116.86820220947266,116.61499786376953,116.61499786376953,11172
2022-01-31 14:45:00-05:00,116.55000305175781,116.55000305175781,116.23999786376953,116.4000015258789,9287
2022-01-31 15:00:00-05:00,116.3499984741211,116.41000366210938,115.79000091552734,115.79000091552734,11137
2022-01-31 15:15:00-05:00,115.81999969482422,116.27999877929688,115.73999786376953,116.19999694824219,11676
2022-01-31 15:30:00-05:00,116.1500015258789,116.77999877929688,116.08000183105469,116.7750015258789,21782
2022-01-31 15:45:00-05:00,116.7300033569336,117.33999633789062,116.66000366210938,117.33000183105469,67043
2022-01-31 16:00:00-05:00,117.3,117.3,117.299,117.3,0
2022-01-31 16:15:00-05:00,115.6869,115.6869,115.6869,115.6869,0
2022-02-01 07:30:00-05:00,118.2,118.2,118.2,118.2,0
2022-02-01 09:30:00-05:00,117.08999633789062,118.93000030517578,116.7699966430664,118.55000305175781,24944
2022-02-01 09:45:00-05:00,118.22000122070312,118.2249984741211,117.58000183105469,117.60009765625,19215
2022-02-01 10:00:00-05:00,117.25,117.25,116.76000213623047,116.83999633789062,15235
2022-02-01 10:15:00-05:00,116.86000061035156,117.13999938964844,116.83999633789062,116.95999908447266,3550
2022-02-01 10:30:00-05:00,116.83999633789062,117.37000274658203,116.83999633789062,117.0,5892
2022-02-01 10:45:00-05:00,117.0999984741211,117.18000030517578,117.0250015258789,117.08000183105469,3283
2022-02-01 11:00:00-05:00,117.1500015258789,117.27999877929688,116.94999694824219,117.05000305175781,4814
2022-02-01 11:15:00-05:00,116.91000366210938,117.02999877929688,116.88999938964844,116.88999938964844,4930
2022-02-01 11:30:00-05:00,116.8499984741211,116.97000122070312,116.44999694824219,116.88999938964844,5087
2022-02-01 11:45:00-05:00,117.06999969482422,117.06999969482422,116.66000366210938,116.66000366210938,1606
2022-02-01 12:00:00-05:00,116.58999633789062,116.58999633789062,116.51000213623047,116.51000213623047,815
2022-02-01 12:15:00-05:00,116.50499725341797,116.69999694824219,116.50499725341797,116.69999694824219,4452
2022-02-01 12:30:00-05:00,116.83999633789062,117.08999633789062,116.56999969482422,116.86000061035156,4605
2022-02-01 12:45:00-05:00,116.73999786376953,116.73999786376953,116.5199966430664,116.66999816894531,2723
2022-02-01 13:00:00-05:00,116.7300033569336,116.7300033569336,116.52999877929688,116.55999755859375,1922
2022-02-01 13:15:00-05:00,116.66999816894531,116.95999908447266,116.66999816894531,116.80000305175781,3109
2022-02-01 13:30:00-05:00,116.77760314941406,117.04000091552734,116.77760314941406,117.04000091552734,2824
2022-02-01 13:45:00-05:00,117.0999984741211,117.2699966430664,117.0,117.0,2375
2022-02-01 14:00:00-05:00,116.97000122070312,117.02999877929688,116.75,116.9800033569336,5888
2022-02-01 14:15:00-05:00,116.90499877929688,117.05500030517578,116.7750015258789,116.8499984741211,3878
2022-02-01 14:30:00-05:00,116.98999786376953,117.29000091552734,116.98999786376953,117.11000061035156,2604
2022-02-01 14:45:00-05:00,117.1050033569336,117.26000213623047,117.08999633789062,117.12999725341797,4426
2022-02-01 15:00:00-05:00,117.18000030517578,117.44999694824219,117.08999633789062,117.44499969482422,7430
2022-02-01 15:15:00-05:00,117.36000061035156,117.66999816894531,117.27999877929688,117.66999816894531,5594
2022-02-01 15:30:00-05:00,117.56999969482422,117.69999694824219,117.37000274658203,117.37000274658203,11366
2022-02-01 15:45:00-05:00,117.38999938964844,117.70999908447266,117.31999969482422,117.4800033569336,33752
2022-02-01 16:00:00-05:00,117.48,117.48,117.479,117.479,0
2022-02-02 09:30:00-05:00,116.69999694824219,116.69999694824219,116.45500183105469,116.45500183105469,1796
2022-02-02 09:45:00-05:00,116.55999755859375,116.72000122070312,116.26000213623047,116.54000091552734,4280
2022-02-02 10:00:00-05:00,116.66000366210938,116.77999877929688,116.1449966430664,116.4800033569336,20280
2022-02-02 10:15:00-05:00,116.4800033569336,116.4800033569336,116.08499908447266,116.2699966430664,2844
2022-02-02 10:30:00-05:00,116.11000061035156,116.75,116.01000213623047,116.73999786376953,62103
2022-02-02 10:45:00-05:00,116.75,116.83000183105469,116.43000030517578,116.83000183105469,2832
2022-02-02 11:00:00-05:00,116.86499786376953,117.0199966430664,116.70800018310547,116.70800018310547,49644
2022-02-02 11:15:00-05:00,116.68000030517578,116.94000244140625,116.68000030517578,116.91500091552734,1175
2022-02-02 11:30:00-05:00,116.80000305175781,116.87999725341797,116.75,116.80000305175781,3586
2022-02-02 11:45:00-05:00,116.83000183105469,116.8550033569336,116.4000015258789,116.4000015258789,3712
2022-02-02 12:00:00-05:00,116.25,116.67500305175781,116.25,116.67500305175781,3850
2022-02-02 12:15:00-05:00,116.5,116.65989685058594,116.5,116.5199966430664,1897
2022-02-02 12:30:00-05:00,116.48999786376953,116.63999938964844,116.48999786376953,116.55999755859375,1791
2022-02-02 12:45:00-05:00,116.55000305175781,116.66999816894531,116.43000030517578,116.66999816894531,3375
2022-02-02 13:00:00-05:00,116.63999938964844,116.66999816894531,116.5,116.5,1468
2022-02-02 13:15:00-05:00,116.45999908447266,116.4800033569336,116.19000244140625,116.3499984741211,10105
2022-02-02 13:30:00-05:00,116.41999816894531,116.41999816894531,116.30999755859375,116.33000183105469,2846
2022-02-02 13:45:00-05:00,116.31999969482422,116.58000183105469,116.23999786376953,116.56999969482422,3600
2022-02-02 14:00:00-05:00,116.5199966430664,116.66000366210938,116.44000244140625,116.55000305175781,3795
2022-02-02 14:15:00-05:00,116.47000122070312,116.63999938964844,116.33000183105469,116.63999938964844,5046
2022-02-02 14:30:00-05:00,116.5,116.61000061035156,116.37999725341797,116.61000061035156,2641
2022-02-02 14:45:00-05:00,116.62000274658203,116.70999908447266,116.4749984741211,116.69000244140625,15613
2022-02-02 15:00:00-05:00,116.68000030517578,116.70999908447266,116.41000366210938,116.56500244140625,9199
2022-02-02 15:15:00-05:00,116.51000213623047,116.75,116.41000366210938,116.4749984741211,11556
2022-02-02 15:30:00-05:00,116.4800033569336,116.69000244140625,116.2699966430664,116.48249816894531,25888
2022-02-02 15:45:00-05:00,116.5199966430664,116.65499877929688,116.27999877929688,116.61000061035156,62348
2022-02-02 16:00:00-05:00,116.62,116.62,116.62,116.62,0
2022-02-02 16:15:00-05:00,116.62,116.62,116.62,116.62,0
2022-02-03 09:30:00-05:00,116.44000244140625,116.44000244140625,115.66380310058594,116.16999816894531,3430
2022-02-03 09:45:00-05:00,116.16000366210938,116.38999938964844,115.52999877929688,115.58999633789062,5017
2022-02-03 10:00:00-05:00,115.91000366210938,116.51000213623047,115.91000366210938,116.51000213623047,2343
2022-02-03 10:15:00-05:00,116.37000274658203,116.66000366210938,116.29000091552734,116.59249877929688,3420
2022-02-03 10:30:00-05:00,116.68000030517578,117.16000366210938,116.68000030517578,117.12999725341797,3128
2022-02-03 10:45:00-05:00,117.37000274658203,117.37999725341797,117.05000305175781,117.20999908447266,6735
2022-02-03 11:00:00-05:00,117.0,117.30999755859375,116.94499969482422,117.30999755859375,5573
2022-02-03 11:15:00-05:00,117.05999755859375,117.08000183105469,116.70999908447266,116.91999816894531,4786
2022-02-03 11:30:00-05:00,117.01000213623047,117.09040069580078,116.76000213623047,116.76000213623047,2991
2022-02-03 11:45:00-05:00,116.58999633789062,116.66000366210938,116.5,116.58499908447266,5262
2022-02-03 12:00:00-05:00,116.45999908447266,116.5199966430664,116.23500061035156,116.5199966430664,4115
2022-02-03 12:15:00-05:00,116.37999725341797,116.69000244140625,116.37999725341797,116.69000244140625,3104
2022-02-03 12:30:00-05:00,116.58999633789062,116.69000244140625,116.43000030517578,116.62999725341797,3214
2022-02-03 12:45:00-05:00,116.56999969482422,116.6500015258789,116.43000030517578,116.58999633789062,2503
2022-02-03 13:00:00-05:00,116.53500366210938,116.66000366210938,116.5199966430664,116.66000366210938,2935
2022-02-03 13:15:00-05:00,116.69999694824219,116.80999755859375,116.66000366210938,116.69000244140625,2498
2022-02-03 13:30:00-05:00,116.73999786376953,116.8499984741211,116.6500015258789,116.80000305175781,4025
2022-02-03 13:45:00-05:00,116.73999786376953,116.8949966430664,116.65010070800781,116.74500274658203,2977
2022-02-03 14:00:00-05:00,116.66000366210938,116.66000366210938,116.41500091552734,116.43000030517578,5067
2022-02-03 14:15:00-05:00,116.38999938964844,116.62000274658203,116.12000274658203,116.12000274658203,6719
2022-02-03 14:30:00-05:00,116.12999725341797,116.12999725341797,115.75,115.75,5981
2022-02-03 14:45:00-05:00,115.66999816894531,115.72000122070312,115.61000061035156,115.71499633789062,4924
2022-02-03 15:00:00-05:00,115.77999877929688,115.97000122070312,115.46499633789062,115.97000122070312,9588
2022-02-03 15:15:00-05:00,115.95999908447266,115.98999786376953,115.66549682617188,115.66549682617188,6476
2022-02-03 15:30:00-05:00,115.72000122070312,115.72000122070312,115.12999725341797,115.2300033569336,10587
2022-02-03 15:45:00-05:00,115.2300033569336,115.30000305175781,114.91000366210938,115.19000244140625,34076
2022-02-03 16:00:00-05:00,115.19,115.19,115.19,115.19,0
2022-02-04 09:30:00-05:00,114.68000030517578,115.23999786376953,114.68000030517578,115.23999786376953,3769
2022-02-04 09:45:00-05:00,114.77999877929688,114.77999877929688,114.0,114.13999938964844,3080
2022-02-04 10:00:00-05:00,114.37999725341797,114.4197006225586,113.9800033569336,114.25,3274
2022-02-04 10:15:00-05:00,114.37999725341797,114.37999725341797,113.8499984741211,113.93000030517578,4164
2022-02-04 10:30:00-05:00,113.94999694824219,114.26000213623047,113.66000366210938,113.95999908447266,9702
2022-02-04 10:45:00-05:00,113.93499755859375,114.31999969482422,113.7300033569336,114.30999755859375,7123
2022-02-04 11:00:00-05:00,114.25,114.51000213623047,114.16999816894531,114.38500213623047,7265
2022-02-04 11:15:00-05:00,114.37999725341797,115.01000213623047,114.37999725341797,114.93000030517578,5689
2022-02-04 11:30:00-05:00,114.94000244140625,115.08999633789062,114.90499877929688,115.02999877929688,3979
2022-02-04 11:45:00-05:00,115.06999969482422,115.06999969482422,114.51000213623047,114.56999969482422,4235
2022-02-04 12:00:00-05:00,114.55999755859375,114.86000061035156,114.55999755859375,114.86000061035156,4297
2022-02-04 12:15:00-05:00,114.77999877929688,114.83999633789062,114.5,114.62999725341797,5246
2022-02-04 12:30:00-05:00,114.44000244140625,114.70999908447266,114.44000244140625,114.70999908447266,4492
2022-02-04 12:45:00-05:00,114.61000061035156,114.91000366210938,114.54000091552734,114.91000366210938,4289
2022-02-04 13:00:00-05:00,114.91000366210938,115.19999694824219,114.91000366210938,115.12000274658203,2873
2022-02-04 13:15:00-05:00,115.16000366210938,115.17500305175781,114.91480255126953,114.91480255126953,6481
2022-02-04 13:30:00-05:00,114.93000030517578,115.12000274658203,114.93000030517578,115.05000305175781,2193
2022-02-04 13:45:00-05:00,115.20999908447266,115.3949966430664,114.98999786376953,115.27999877929688,9066
2022-02-04 14:00:00-05:00,115.44000244140625,115.44000244140625,115.2345962524414,115.33999633789062,6499
2022-02-04 14:15:00-05:00,115.37000274658203,115.47000122070312,115.19999694824219,115.45999908447266,9406
2022-02-04 14:30:00-05:00,115.47000122070312,115.77999877929688,115.43499755859375,115.62999725341797,8270
2022-02-04 14:45:00-05:00,115.5999984741211,115.5999984741211,115.4000015258789,115.56500244140625,5331
2022-02-04 15:00:00-05:00,115.55999755859375,115.9749984741211,115.53500366210938,115.94000244140625,6923
2022-02-04 15:15:00-05:00,115.87999725341797,115.87999725341797,115.63999938964844,115.80999755859375,9418
2022-02-04 15:30:00-05:00,115.99500274658203,116.02999877929688,115.55000305175781,115.55000305175781,14281
2022-02-04 15:45:00-05:00,115.52999877929688,115.56999969482422,115.20999908447266,115.26000213623047,58748
2022-02-04 16:00:00-05:00,115.26,115.26,115.26,115.26,0
2022-02-07 09:30:00-05:00,115.62000274658203,115.93000030517578,115.01000213623047,115.25,3386
2022-02-07 09:45:00-05:00,115.06500244140625,115.5,114.83000183105469,114.88500213623047,2250
2022-02-07 10:00:00-05:00,115.11000061035156,115.27999877929688,114.33000183105469,114.58499908447266,12426
2022-02-07 10:15:00-05:00,114.37999725341797,114.58999633789062,114.37999725341797,114.58499908447266,883
2022-02-07 10:30:00-05:00,114.76000213623047,115.41999816894531,114.61100006103516,115.30999755859375,7506
2022-02-07 10:45:00-05:00,115.1500015258789,115.30000305175781,115.11000061035156,115.19000244140625,2235
2022-02-07 11:00:00-05:00,115.2300033569336,115.2300033569336,115.0,115.12999725341797,6007
2022-02-07 11:15:00-05:00,115.12000274658203,115.33000183105469,115.0199966430664,115.33000183105469,5120
2022-02-07 11:30:00-05:00,115.11000061035156,115.11000061035156,114.80000305175781,114.80999755859375,3211
2022-02-07 11:45:00-05:00,114.7699966430664,114.78500366210938,114.68000030517578,114.68000030517578,1935
2022-02-07 12:00:00-05:00,114.73999786376953,114.8499984741211,114.62999725341797,114.6500015258789,4625
2022-02-07 12:15:00-05:00,114.94000244140625,114.94999694824219,114.61000061035156,114.625,5892
2022-02-07 12:30:00-05:00,114.7699966430664,114.93000030517578,114.66000366210938,114.93000030517578,6574
2022-02-07 12:45:00-05:00,115.22000122070312,115.2699966430664,115.12999725341797,115.12999725341797,4547
2022-02-07 13:00:00-05:00,115.1050033569336,115.44000244140625,115.08999633789062,115.2699966430664,5362
2022-02-07 13:15:00-05:00,115.37000274658203,115.37999725341797,115.16000366210938,115.2699966430664,4465
2022-02-07 13:30:00-05:00,115.4000015258789,115.55000305175781,115.4000015258789,115.5,5981
2022-02-07 13:45:00-05:00,115.45999908447266,115.80789947509766,115.45500183105469,115.72000122070312,5390
2022-02-07 14:00:00-05:00,115.72000122070312,115.73999786376953,115.45500183105469,115.55999755859375,5046
2022-02-07 14:15:00-05:00,115.5199966430664,115.91000366210938,115.5199966430664,115.79499816894531,7664
2022-02-07 14:30:00-05:00,115.80999755859375,115.87000274658203,115.70999908447266,115.83000183105469,5982
2022-02-07 14:45:00-05:00,115.91999816894531,116.02999877929688,115.54000091552734,115.61000061035156,15981
2022-02-07 15:00:00-05:00,115.5999984741211,115.72000122070312,115.18000030517578,115.36000061035156,9349
2022-02-07 15:15:00-05:00,115.40499877929688,115.56999969482422,114.93499755859375,114.93499755859375,8100
2022-02-07 15:30:00-05:00,115.0,115.18499755859375,114.69999694824219,114.75499725341797,16244
2022-02-07 15:45:00-05:00,114.69000244140625,114.97000122070312,114.33000183105469,114.73999786376953,82248
2022-02-07 16:00:00-05:00,114.74,114.74,114.74,114.74,22175
2022-02-08 09:30:00-05:00,115.0,115.61000061035156,114.86000061035156,114.86000061035156,4349
2022-02-08 09:45:00-05:00,115.08999633789062,115.47000122070312,114.73999786376953,115.36000061035156,2650
2022-02-08 10:00:00-05:00,115.27999877929688,115.41500091552734,114.99500274658203,115.19999694824219,3091
2022-02-08 10:15:00-05:00,115.18499755859375,115.45860290527344,115.11000061035156,115.11000061035156,3604
2022-02-08 10:30:00-05:00,115.1050033569336,115.5199966430664,115.1050033569336,115.3499984741211,2798
2022-02-08 10:45:00-05:00,115.5,115.75,115.5,115.75,6729
2022-02-08 11:00:00-05:00,116.04000091552734,116.04000091552734,115.73999786376953,115.94999694824219,2877
2022-02-08 11:15:00-05:00,116.0,116.0199966430664,115.72000122070312,115.73999786376953,4153
2022-02-08 11:30:00-05:00,115.73500061035156,115.73500061035156,115.73500061035156,115.73500061035156,829
2022-02-08 11:45:00-05:00,116.14659881591797,116.22000122070312,116.11000061035156,116.16000366210938,4161
2022-02-08 12:00:00-05:00,116.12000274658203,116.12999725341797,116.0199966430664,116.02539825439453,4597
2022-02-08 12:15:00-05:00,115.91999816894531,115.93000030517578,115.81999969482422,115.93000030517578,2985
2022-02-08 12:30:00-05:00,115.9176025390625,116.25,115.81999969482422,116.22000122070312,14859
2022-02-08 12:45:00-05:00,116.3949966430664,116.3949966430664,116.0999984741211,116.0999984741211,2779
2022-02-08 13:00:00-05:00,116.22000122070312,116.2699966430664,116.05999755859375,116.05999755859375,3660
2022-02-08 13:15:00-05:00,116.0,116.06999969482422,115.87000274658203,115.87000274658203,3690
2022-02-08 13:30:00-05:00,115.97000122070312,116.1500015258789,115.87999725341797,115.87999725341797,3079
2022-02-08 13:45:00-05:00,115.81999969482422,116.02999877929688,115.67140197753906,115.77999877929688,5354
2022-02-08 14:00:00-05:00,115.86000061035156,116.10260009765625,115.80500030517578,116.10260009765625,3842
2022-02-08 14:15:00-05:00,116.13999938964844,116.13999938964844,115.66000366210938,115.69999694824219,5254
2022-02-08 14:30:00-05:00,115.76499938964844,115.95999908447266,115.7249984741211,115.74500274658203,7121
2022-02-08 14:45:00-05:00,115.70999908447266,115.70999908447266,115.37999725341797,115.55999755859375,4962
2022-02-08 15:00:00-05:00,115.62999725341797,115.95999908447266,115.52999877929688,115.95999908447266,5037
2022-02-08 15:15:00-05:00,116.02999877929688,116.1500015258789,115.95999908447266,116.0999984741211,8312
2022-02-08 15:30:00-05:00,116.05999755859375,116.37000274658203,115.94999694824219,116.0,18240
2022-02-08 15:45:00-05:00,115.96499633789062,116.43499755859375,115.87000274658203,116.05999755859375,46169
2022-02-08 16:00:00-05:00,116.1,116.1,116.05,116.05,0
2022-02-09 09:30:00-05:00,117.08000183105469,117.50499725341797,116.33000183105469,116.33000183105469,1799
2022-02-09 09:45:00-05:00,117.54000091552734,117.65499877929688,116.95999908447266,116.95999908447266,9178
2022-02-09 10:00:00-05:00,116.7699966430664,117.16999816894531,116.76000213623047,116.9800033569336,7019
2022-02-09 10:15:00-05:00,117.06999969482422,117.40750122070312,116.80000305175781,117.2750015258789,12546
2022-02-09 10:30:00-05:00,117.18000030517578,117.26000213623047,116.9000015258789,116.91000366210938,9014
2022-02-09 10:45:00-05:00,117.05999755859375,117.16999816894531,116.94000244140625,116.94000244140625,8889
2022-02-09 11:00:00-05:00,116.98500061035156,117.01499938964844,116.63999938964844,116.63999938964844,4559
2022-02-09 11:15:00-05:00,116.30000305175781,116.75,116.27999877929688,116.56999969482422,6370
2022-02-09 11:30:00-05:00,116.55000305175781,116.58999633789062,116.36000061035156,116.44000244140625,9434
2022-02-09 11:45:00-05:00,116.44000244140625,116.58000183105469,116.31999969482422,116.53500366210938,14473
2022-02-09 12:00:00-05:00,116.69999694824219,116.87000274658203,116.61499786376953,116.63999938964844,7040
2022-02-09 12:15:00-05:00,116.66000366210938,116.76499938964844,116.52999877929688,116.63999938964844,6575
2022-02-09 12:30:00-05:00,116.63999938964844,116.80999755859375,116.56999969482422,116.77999877929688,3705
2022-02-09 12:45:00-05:00,116.73999786376953,116.8499984741211,116.68000030517578,116.75499725341797,10001
2022-02-09 13:00:00-05:00,116.80999755859375,116.86000061035156,116.43000030517578,116.43000030517578,9538
2022-02-09 13:15:00-05:00,116.41500091552734,116.76000213623047,116.38999938964844,116.58000183105469,4369
2022-02-09 13:30:00-05:00,116.58999633789062,116.7699966430664,116.58000183105469,116.7699966430664,4648
2022-02-09 13:45:00-05:00,116.86000061035156,117.05999755859375,116.70999908447266,116.70999908447266,5415
2022-02-09 14:00:00-05:00,116.6500015258789,116.8302993774414,116.62000274658203,116.7699966430664,4424
2022-02-09 14:15:00-05:00,116.80000305175781,116.93000030517578,116.72000122070312,116.93000030517578,5732
2022-02-09 14:30:00-05:00,116.9800033569336,117.11000061035156,116.95999908447266,117.01000213623047,4946
2022-02-09 14:45:00-05:00,116.93000030517578,116.93000030517578,116.47000122070312,116.56999969482422,5706
2022-02-09 15:00:00-05:00,116.55999755859375,116.62000274658203,116.5,116.51499938964844,3986
2022-02-09 15:15:00-05:00,116.45999908447266,116.47000122070312,116.30000305175781,116.46499633789062,6935
2022-02-09 15:30:00-05:00,116.41000366210938,116.58000183105469,116.19999694824219,116.30999755859375,14658
2022-02-09 15:45:00-05:00,116.30000305175781,116.72000122070312,116.26000213623047,116.55000305175781,45635
2022-02-09 16:00:00-05:00,116.47,116.55,116.47,116.55,0
2022-02-10 09:30:00-05:00,115.5199966430664,116.22000122070312,115.08000183105469,116.22000122070312,2643
2022-02-10 09:45:00-05:00,116.4749984741211,116.4749984741211,115.36000061035156,115.77999877929688,3995
2022-02-10 10:00:00-05:00,116.16999816894531,116.54000091552734,115.9800033569336,116.52999877929688,7275
2022-02-10 10:15:00-05:00,116.5,116.75499725341797,116.4800033569336,116.62999725341797,4191
2022-02-10 10:30:00-05:00,116.7699966430664,117.08000183105469,116.7699966430664,116.87000274658203,4846
2022-02-10 10:45:00-05:00,116.94499969482422,117.1500015258789,116.7300033569336,116.88059997558594,4714
2022-02-10 11:00:00-05:00,116.8499984741211,117.19999694824219,116.55000305175781,117.13999938964844,13120
2022-02-10 11:15:00-05:00,117.18499755859375,117.25,116.7300033569336,116.76499938964844,4382
2022-02-10 11:30:00-05:00,116.7300033569336,116.83000183105469,116.62999725341797,116.83000183105469,2142
2022-02-10 11:45:00-05:00,116.76000213623047,116.93000030517578,116.68000030517578,116.68000030517578,4591
2022-02-10 12:00:00-05:00,116.80500030517578,116.80500030517578,116.69999694824219,116.76000213623047,2956
2022-02-10 12:15:00-05:00,116.87000274658203,116.99500274658203,116.61000061035156,116.83000183105469,5071
2022-02-10 12:30:00-05:00,116.83000183105469,116.93689727783203,116.58999633789062,116.6500015258789,3766
2022-02-10 12:45:00-05:00,116.58000183105469,116.58000183105469,115.9000015258789,116.06999969482422,4855
2022-02-10 13:00:00-05:00,116.01000213623047,116.01000213623047,115.79000091552734,115.95999908447266,3370
2022-02-10 13:15:00-05:00,115.80000305175781,115.80000305175781,115.54000091552734,115.54000091552734,3123
2022-02-10 13:30:00-05:00,115.37000274658203,115.37000274658203,115.05999755859375,115.05999755859375,3785
2022-02-10 13:45:00-05:00,115.16999816894531,115.16999816894531,114.91999816894531,114.94000244140625,4655
2022-02-10 14:00:00-05:00,115.05000305175781,115.05000305175781,114.45999908447266,114.4800033569336,8131
2022-02-10 14:15:00-05:00,114.4000015258789,114.69999694824219,114.12000274658203,114.48999786376953,3862
2022-02-10 14:30:00-05:00,114.6500015258789,114.75,114.54000091552734,114.69000244140625,3605
2022-02-10 14:45:00-05:00,114.68499755859375,114.91000366210938,114.33999633789062,114.33999633789062,9684
2022-02-10 15:00:00-05:00,114.5199966430664,114.87000274658203,114.4749984741211,114.81999969482422,4561
2022-02-10 15:15:00-05:00,114.87999725341797,114.87999725341797,114.44999694824219,114.48999786376953,7830
2022-02-10 15:30:00-05:00,114.26000213623047,114.55999755859375,113.94000244140625,113.94000244140625,16549
2022-02-10 15:45:00-05:00,113.87999725341797,114.70999908447266,113.66000366210938,114.61000061035156,86483
2022-02-10 16:00:00-05:00,114.52,114.61,114.52,114.61,0
2022-02-11 09:30:00-05:00,115.04000091552734,115.81999969482422,114.94000244140625,115.44999694824219,4563
2022-02-11 09:45:00-05:00,115.75,116.04000091552734,115.62999725341797,115.62999725341797,4409
2022-02-11 10:00:00-05:00,115.7699966430664,116.13999938964844,115.75,115.75,5032
2022-02-11 10:15:00-05:00,115.88999938964844,116.42500305175781,115.88999938964844,116.42500305175781,2884
2022-02-11 10:30:00-05:00,116.44000244140625,116.44000244140625,115.79499816894531,116.16000366210938,6576
2022-02-11 10:45:00-05:00,115.83999633789062,115.83999633789062,115.19999694824219,115.19999694824219,5182
2022-02-11 11:00:00-05:00,115.55999755859375,115.61000061035156,115.22000122070312,115.30000305175781,3115
2022-02-11 11:15:00-05:00,115.2699966430664,115.37000274658203,115.20999908447266,115.20999908447266,2018
2022-02-11 11:30:00-05:00,115.06999969482422,115.13999938964844,114.91000366210938,114.91000366210938,1910
2022-02-11 11:45:00-05:00,115.20999908447266,115.3499984741211,115.20999908447266,115.31999969482422,1726
2022-02-11 12:00:00-05:00,115.28099822998047,115.48999786376953,115.16999816894531,115.16999816894531,11903
2022-02-11 12:15:00-05:00,115.02999877929688,115.09110260009766,114.83000183105469,115.0,3651
2022-02-11 12:30:00-05:00,114.98999786376953,115.02999877929688,114.7699966430664,114.7699966430664,3050
2022-02-11 12:45:00-05:00,114.77649688720703,114.77999877929688,114.68000030517578,114.68000030517578,1818
2022-02-11 13:00:00-05:00,114.56999969482422,114.92500305175781,114.56999969482422,114.76000213623047,2614
2022-02-11 13:15:00-05:00,114.625,114.625,114.19000244140625,114.19000244140625,9720
2022-02-11 13:30:00-05:00,114.18000030517578,114.23999786376953,113.33999633789062,113.37000274658203,5663
2022-02-11 13:45:00-05:00,113.23999786376953,113.58000183105469,112.97000122070312,113.33000183105469,4929
2022-02-11 14:00:00-05:00,113.0999984741211,113.5199966430664,112.87000274658203,113.5,8485
2022-02-11 14:15:00-05:00,113.86000061035156,114.1500015258789,113.58000183105469,113.58999633789062,5027
2022-02-11 14:30:00-05:00,113.66000366210938,114.1500015258789,113.54000091552734,113.54000091552734,8402
2022-02-11 14:45:00-05:00,113.41999816894531,113.80000305175781,113.13999938964844,113.68000030517578,5997
2022-02-11 15:00:00-05:00,113.51000213623047,113.93499755859375,113.3499984741211,113.38500213623047,9077
2022-02-11 15:15:00-05:00,113.43000030517578,113.58000183105469,113.30000305175781,113.54000091552734,10444
2022-02-11 15:30:00-05:00,113.72000122070312,113.7699966430664,113.27999877929688,113.5999984741211,19538
2022-02-11 15:45:00-05:00,113.6050033569336,114.05000305175781,113.5,113.70999908447266,54455
2022-02-11 16:00:00-05:00,113.71,113.71,113.71,113.71,0
2022-02-14 07:30:00-05:00,113.0,113.0,113.0,113.0,0
2022-02-14 09:30:00-05:00,113.70999908447266,114.47000122070312,112.4800033569336,114.47000122070312,2771
2022-02-14 09:45:00-05:00,113.68000030517578,113.69000244140625,113.0199966430664,113.5770034790039,3349
2022-02-14 10:00:00-05:00,113.43000030517578,113.52999877929688,112.87000274658203,113.1500015258789,3892
2022-02-14 10:15:00-05:00,112.80000305175781,112.91000366210938,112.4375,112.77999877929688,4854
2022-02-14 10:30:00-05:00,112.94000244140625,112.94000244140625,112.56999969482422,112.56999969482422,4157
2022-02-14 10:45:00-05:00,112.95999908447266,113.06999969482422,112.8499984741211,112.8550033569336,4698
2022-02-14 11:00:00-05:00,112.55000305175781,112.83000183105469,112.55000305175781,112.66000366210938,2701
2022-02-14 11:15:00-05:00,112.69999694824219,113.02999877929688,112.69999694824219,113.02999877929688,2452
2022-02-14 11:30:00-05:00,112.80000305175781,113.05000305175781,112.7300033569336,113.05000305175781,4189
2022-02-14 11:45:00-05:00,113.23999786376953,113.26000213623047,112.94000244140625,112.94000244140625,3122
2022-02-14 12:00:00-05:00,113.16999816894531,113.16999816894531,112.9000015258789,113.12999725341797,2828
2022-02-14 12:15:00-05:00,113.30999755859375,113.68000030517578,113.30999755859375,113.61000061035156,3772
2022-02-14 12:30:00-05:00,113.5,113.6500015258789,113.41999816894531,113.6500015258789,2025
2022-02-14 12:45:00-05:00,113.61000061035156,113.76000213623047,113.61000061035156,113.6500015258789,3113
2022-02-14 13:00:00-05:00,113.69999694824219,113.76000213623047,113.62000274658203,113.76000213623047,2636
2022-02-14 13:15:00-05:00,113.51000213623047,113.54000091552734,113.13999938964844,113.41000366210938,4200
2022-02-14 13:30:00-05:00,113.04000091552734,113.4000015258789,112.9800033569336,113.29000091552734,3780
2022-02-14 13:45:00-05:00,113.22000122070312,113.22000122070312,112.6500015258789,112.80999755859375,6028
2022-02-14 14:00:00-05:00,112.62000274658203,113.25,112.56999969482422,113.25,6213
2022-02-14 14:15:00-05:00,113.23999786376953,113.75,113.0999984741211,113.66999816894531,9844
2022-02-14 14:30:00-05:00,113.38999938964844,113.94999694824219,113.37000274658203,113.83000183105469,6643
2022-02-14 14:45:00-05:00,113.83000183105469,114.08999633789062,113.69999694824219,113.91999816894531,8067
2022-02-14 15:00:00-05:00,114.04000091552734,114.22000122070312,113.9000015258789,114.19999694824219,9896
2022-02-14 15:15:00-05:00,114.2249984741211,114.2249984741211,113.95999908447266,114.12650299072266,7824
2022-02-14 15:30:00-05:00,114.12999725341797,114.51000213623047,114.06999969482422,114.22000122070312,15181
2022-02-14 15:45:00-05:00,114.22000122070312,114.45999908447266,113.83000183105469,114.02999877929688,75498
2022-02-14 16:00:00-05:00,114.1,114.1,114.1,114.1,0
2022-02-15 09:30:00-05:00,114.66000366210938,116.12999725341797,114.66000366210938,116.12999725341797,4074
2022-02-15 09:45:00-05:00,116.06500244140625,116.06500244140625,115.22000122070312,115.22000122070312,4563
2022-02-15 10:00:00-05:00,115.09500122070312,115.09500122070312,114.55999755859375,114.55999755859375,3044
2022-02-15 10:15:00-05:00,114.83000183105469,114.98999786376953,114.79000091552734,114.83999633789062,3684
2022-02-15 10:30:00-05:00,114.9000015258789,115.01000213623047,114.76000213623047,114.87000274658203,3851
2022-02-15 10:45:00-05:00,115.01000213623047,115.08000183105469,114.77999877929688,115.06999969482422,4567
2022-02-15 11:00:00-05:00,115.1500015258789,115.27999877929688,114.70999908447266,114.70999908447266,6205
2022-02-15 11:15:00-05:00,114.66999816894531,114.70829772949219,114.5199966430664,114.5199966430664,2553
2022-02-15 11:30:00-05:00,114.70999908447266,114.8499984741211,114.69999694824219,114.69999694824219,3066
2022-02-15 11:45:00-05:00,114.76000213623047,114.76000213623047,114.5999984741211,114.75,8777
2022-02-15 12:00:00-05:00,114.91000366210938,115.01000213623047,114.80000305175781,114.80000305175781,7721
2022-02-15 12:15:00-05:00,114.7300033569336,114.86000061035156,114.66000366210938,114.80000305175781,8330
2022-02-15 12:30:00-05:00,114.87000274658203,114.94000244140625,114.81999969482422,114.83999633789062,5802
2022-02-15 12:45:00-05:00,114.88999938964844,114.88999938964844,114.5999984741211,114.5999984741211,4915
2022-02-15 13:00:00-05:00,114.7699966430664,114.87999725341797,114.7699966430664,114.87999725341797,1311
2022-02-15 13:15:00-05:00,114.87999725341797,115.01000213623047,114.80000305175781,115.01000213623047,6982
2022-02-15 13:30:00-05:00,115.04000091552734,115.06999969482422,114.87000274658203,114.9800033569336,7818
2022-02-15 13:45:00-05:00,114.93000030517578,114.9800033569336,114.83000183105469,114.83000183105469,3837
2022-02-15 14:00:00-05:00,114.77999877929688,114.80999755859375,114.45999908447266,114.5,4700
2022-02-15 14:15:00-05:00,114.75,114.75,114.51000213623047,114.52999877929688,1730
2022-02-15 14:30:00-05:00,114.58000183105469,114.5999984741211,114.2699966430664,114.30500030517578,8239
2022-02-15 14:45:00-05:00,114.24500274658203,114.31999969482422,114.1050033569336,114.19999694824219,10241
2022-02-15 15:00:00-05:00,114.2699966430664,114.31999969482422,114.19000244140625,114.19000244140625,3708
2022-02-15 15:15:00-05:00,114.1500015258789,114.27999877929688,113.91999816894531,113.94499969482422,11774
2022-02-15 15:30:00-05:00,113.9800033569336,114.01000213623047,113.4000015258789,113.7249984741211,27042
2022-02-15 15:45:00-05:00,113.70999908447266,114.19000244140625,113.55000305175781,114.0999984741211,69728
2022-02-15 16:00:00-05:00,114.06,114.1,114.06,114.1,29855
2022-02-16 09:30:00-05:00,114.25,114.50499725341797,114.05000305175781,114.05000305175781,1491
2022-02-16 09:45:00-05:00,114.05000305175781,114.05000305175781,113.19000244140625,113.19000244140625,5064
2022-02-16 10:00:00-05:00,113.41999816894531,113.61000061035156,113.19000244140625,113.19039916992188,3562
2022-02-16 10:15:00-05:00,113.26000213623047,113.54000091552734,113.0999984741211,113.44999694824219,9981
2022-02-16 10:30:00-05:00,113.45059967041016,113.62999725341797,113.26000213623047,113.55000305175781,4424
2022-02-16 10:45:00-05:00,113.47000122070312,113.70500183105469,113.43499755859375,113.69999694824219,16452
2022-02-16 11:00:00-05:00,113.93000030517578,114.0,113.77999877929688,113.77999877929688,5538
2022-02-16 11:15:00-05:00,113.95999908447266,114.19999694824219,113.90499877929688,114.08000183105469,8186
2022-02-16 11:30:00-05:00,114.13999938964844,114.2300033569336,113.80000305175781,113.80000305175781,3635
2022-02-16 11:45:00-05:00,113.91999816894531,114.18000030517578,113.81999969482422,114.01499938964844,3984
2022-02-16 12:00:00-05:00,114.12999725341797,114.33830261230469,114.08999633789062,114.25499725341797,3107
2022-02-16 12:15:00-05:00,114.30000305175781,114.30000305175781,114.16000366210938,114.16999816894531,3224
2022-02-16 12:30:00-05:00,114.18000030517578,114.18000030517578,113.9800033569336,114.07499694824219,5487
2022-02-16 12:45:00-05:00,114.13999938964844,114.41999816894531,114.13999938964844,114.34500122070312,3665
2022-02-16 13:00:00-05:00,114.20999908447266,114.32499694824219,114.16999816894531,114.25499725341797,4036
2022-02-16 13:15:00-05:00,114.12000274658203,114.25,114.11000061035156,114.20999908447266,3244
2022-02-16 13:30:00-05:00,114.0999984741211,114.20999908447266,114.0,114.0999984741211,4085
2022-02-16 13:45:00-05:00,114.13999938964844,114.19999694824219,113.95939636230469,114.02999877929688,4284
2022-02-16 14:00:00-05:00,114.08000183105469,114.2300033569336,113.63999938964844,114.08999633789062,9830
2022-02-16 14:15:00-05:00,114.0999984741211,114.55999755859375,113.9800033569336,114.55999755859375,20748
2022-02-16 14:30:00-05:00,114.52999877929688,115.01499938964844,114.47000122070312,114.67500305175781,9646
2022-02-16 14:45:00-05:00,114.75,114.75,114.5999984741211,114.70500183105469,4902
2022-02-16 15:00:00-05:00,114.70500183105469,115.0199966430664,114.66999816894531,114.87999725341797,8395
2022-02-16 15:15:00-05:00,114.80999755859375,115.06500244140625,114.80999755859375,114.96499633789062,6289
2022-02-16 15:30:00-05:00,114.88999938964844,115.00499725341797,114.77999877929688,114.97000122070312,16425
2022-02-16 15:45:00-05:00,114.8949966430664,115.07599639892578,114.5999984741211,114.66999816894531,63945
2022-02-16 16:00:00-05:00,114.82,114.82,114.7,114.7,0
2022-02-17 08:15:00-05:00,114.7,114.7,114.7,114.7,0
2022-02-17 08:30:00-05:00,114.65,114.65,114.59,114.59,0
2022-02-17 09:30:00-05:00,113.95999908447266,114.33999633789062,113.79000091552734,114.33999633789062,3737
2022-02-17 09:45:00-05:00,114.55000305175781,114.55000305175781,113.31500244140625,113.91000366210938,5603
2022-02-17 10:00:00-05:00,113.79000091552734,114.91000366210938,113.79000091552734,114.91000366210938,5513
2022-02-17 10:15:00-05:00,115.19000244140625,115.19000244140625,114.91000366210938,114.95999908447266,8038
2022-02-17 10:30:00-05:00,114.94000244140625,115.2699966430664,114.94000244140625,115.19000244140625,10804
2022-02-17 10:45:00-05:00,115.17680358886719,115.66999816894531,115.12999725341797,115.5999984741211,10435
2022-02-17 11:00:00-05:00,115.41999816894531,115.41999816894531,114.80999755859375,114.93499755859375,8890
2022-02-17 11:15:00-05:00,114.91000366210938,115.08000183105469,114.83000183105469,115.02999877929688,7100
2022-02-17 11:30:00-05:00,114.94999694824219,115.04499816894531,114.88929748535156,115.04499816894531,6375
2022-02-17 11:45:00-05:00,115.03500366210938,115.5,115.03500366210938,115.15499877929688,26047
2022-02-17 12:00:00-05:00,115.18000030517578,115.18000030517578,114.79000091552734,114.79000091552734,5626
2022-02-17 12:15:00-05:00,114.87999725341797,115.30999755859375,114.80999755859375,115.05999755859375,7621
2022-02-17 12:30:00-05:00,115.02999877929688,115.12000274658203,115.0020980834961,115.05500030517578,3798
2022-02-17 12:45:00-05:00,115.05999755859375,115.16999816894531,114.83999633789062,115.16999816894531,6067
2022-02-17 13:00:00-05:00,115.08999633789062,115.25,115.0199966430664,115.16000366210938,4168
2022-02-17 13:15:00-05:00,115.12000274658203,115.2300033569336,115.0199966430664,115.19999694824219,7158
2022-02-17 13:30:00-05:00,115.44000244140625,115.69000244140625,115.44000244140625,115.58000183105469,7071
2022-02-17 13:45:00-05:00,115.63999938964844,116.08999633789062,115.63999938964844,115.8949966430664,5506
2022-02-17 14:00:00-05:00,115.88999938964844,116.12000274658203,115.70999908447266,115.75,11223
2022-02-17 14:15:00-05:00,115.76000213623047,115.83999633789062,115.62999725341797,115.6449966430664,4125
2022-02-17 14:30:00-05:00,115.72000122070312,115.83999633789062,115.61000061035156,115.77999877929688,10238
2022-02-17 14:45:00-05:00,115.77999877929688,116.03500366210938,115.66999816894531,116.03500366210938,14666
2022-02-17 15:00:00-05:00,116.08999633789062,116.08999633789062,115.55500030517578,115.92500305175781,28755
2022-02-17 15:15:00-05:00,115.9000015258789,115.94999694824219,115.62999725341797,115.75,29741
2022-02-17 15:30:00-05:00,115.72000122070312,116.26000213623047,115.69000244140625,115.88200378417969,20433
2022-02-17 15:45:00-05:00,115.9000015258789,116.12000274658203,115.56999969482422,115.56999969482422,70742
2022-02-17 16:00:00-05:00,115.61,115.61,115.61,115.61,0
2022-02-17 17:30:00-05:00,117.91,117.96,117.91,117.96,0
2022-02-17 17:45:00-05:00,117.96,117.96,117.96,117.96,0
2022-02-17 18:00:00-05:00,117.96,118.0,117.96,118.0,0
2022-02-18 09:30:00-05:00,116.27999877929688,118.8949966430664,114.41999816894531,118.68499755859375,21854
2022-02-18 09:45:00-05:00,118.77999877929688,121.5199966430664,118.76000213623047,120.04000091552734,21792
2022-02-18 10:00:00-05:00,120.08000183105469,121.33999633789062,120.0000991821289,121.33999633789062,10173
2022-02-18 10:15:00-05:00,121.37000274658203,121.4000015258789,119.58999633789062,120.45999908447266,19336
2022-02-18 10:30:00-05:00,120.54499816894531,120.76000213623047,119.56999969482422,119.82499694824219,14249
2022-02-18 10:45:00-05:00,119.8499984741211,119.91000366210938,119.05999755859375,119.47000122070312,14255
2022-02-18 11:00:00-05:00,119.39080047607422,119.76000213623047,119.19000244140625,119.45999908447266,13993
2022-02-18 11:15:00-05:00,119.63999938964844,119.69000244140625,118.41000366210938,118.41000366210938,13174
2022-02-18 11:30:00-05:00,118.49500274658203,118.49500274658203,117.62999725341797,117.62999725341797,9841
2022-02-18 11:45:00-05:00,117.66000366210938,117.66000366210938,117.16000366210938,117.31999969482422,11370
2022-02-18 12:00:00-05:00,117.27999877929688,117.91999816894531,117.23999786376953,117.81500244140625,3533
2022-02-18 12:15:00-05:00,117.87999725341797,118.04000091552734,117.2699966430664,117.68000030517578,12871
2022-02-18 12:30:00-05:00,117.83000183105469,118.0199966430664,117.63999938964844,117.94000244140625,9196
2022-02-18 12:45:00-05:00,117.79000091552734,118.01000213623047,117.70999908447266,117.7699966430664,9934
2022-02-18 13:00:00-05:00,117.5999984741211,118.30999755859375,117.5,118.26499938964844,8627
2022-02-18 13:15:00-05:00,118.31999969482422,118.6500015258789,118.13999938964844,118.58499908447266,7586
2022-02-18 13:30:00-05:00,118.56999969482422,119.16999816894531,118.2300033569336,118.2699966430664,18218
2022-02-18 13:45:00-05:00,118.22000122070312,119.16999816894531,118.22000122070312,118.77999877929688,8664
2022-02-18 14:00:00-05:00,118.62000274658203,119.11000061035156,118.62000274658203,119.01000213623047,8800
2022-02-18 14:15:00-05:00,119.01000213623047,119.12999725341797,118.80500030517578,119.05999755859375,10059
2022-02-18 14:30:00-05:00,119.25499725341797,119.33999633789062,118.66000366210938,118.70500183105469,10168
2022-02-18 14:45:00-05:00,118.69000244140625,119.05000305175781,118.5199966430664,118.73500061035156,10636
2022-02-18 15:00:00-05:00,118.95999908447266,119.2300033569336,118.72000122070312,118.75,11796
2022-02-18 15:15:00-05:00,118.94000244140625,119.08999633789062,118.75,118.79000091552734,12450
2022-02-18 15:30:00-05:00,118.70999908447266,119.02999877929688,118.48999786376953,119.02999877929688,22502
2022-02-18 15:45:00-05:00,119.03500366210938,119.05999755859375,118.44000244140625,118.54000091552734,80024
2022-02-18 16:00:00-05:00,118.44,118.44,118.44,118.44,0
